June 22, 2021   15:50:38
Cyclic Voltammetry
File: c:\users\susan odom\desktop\hussein\2021-06-22\csv files\13- scan rate both waves - 25 mv-s
Data Source:  Experiment
Instrument Model:  CHI650Ref. Electrode: 
Header: 
Note: 

Init E (V) = 0
High E (V) = 1.6
Low E (V) = 0
Init P/N = P
Scan Rate (V/s) = 0.025
Segment = 2
Sample Interval (V) = 0.001
Quiet Time (sec) = 2
Sensitivity (A/V) = 1e-4
Comp R (ohm) = 1317.2

Segment 1:
Segment 2:
Ep = 1.360V
Eh = 1.433V
ip = 4.020e-6A
Ah = 1.186e-5C

Potential/V, Current/A

0.000, -9.843e-8
0.001, -8.939e-8
0.002, -8.359e-8
0.003, -8.133e-8
0.004, -7.780e-8
0.005, -7.495e-8
0.006, -7.229e-8
0.007, -6.895e-8
0.008, -6.728e-8
0.009, -6.453e-8
0.010, -6.365e-8
0.011, -6.247e-8
0.012, -5.933e-8
0.013, -5.716e-8
0.014, -5.500e-8
0.015, -5.412e-8
0.016, -5.264e-8
0.017, -5.038e-8
0.018, -4.862e-8
0.019, -4.714e-8
0.020, -4.567e-8
0.021, -4.390e-8
0.022, -4.223e-8
0.023, -4.144e-8
0.024, -4.046e-8
0.025, -3.879e-8
0.026, -3.791e-8
0.027, -3.683e-8
0.028, -3.525e-8
0.029, -3.486e-8
0.030, -3.299e-8
0.031, -3.211e-8
0.032, -3.073e-8
0.033, -3.044e-8
0.034, -2.857e-8
0.035, -2.798e-8
0.036, -2.769e-8
0.037, -2.562e-8
0.038, -2.513e-8
0.039, -2.386e-8
0.040, -2.317e-8
0.041, -2.228e-8
0.042, -2.081e-8
0.043, -2.071e-8
0.044, -2.042e-8
0.045, -1.894e-8
0.046, -1.855e-8
0.047, -1.659e-8
0.048, -1.639e-8
0.049, -1.600e-8
0.050, -1.531e-8
0.051, -1.472e-8
0.052, -1.305e-8
0.053, -1.256e-8
0.054, -1.226e-8
0.055, -1.079e-8
0.056, -1.069e-8
0.057, -9.511e-9
0.058, -8.725e-9
0.059, -8.823e-9
0.060, -7.349e-9
0.061, -6.956e-9
0.062, -6.563e-9
0.063, -5.974e-9
0.064, -5.974e-9
0.065, -4.893e-9
0.066, -4.107e-9
0.067, -3.616e-9
0.068, -3.714e-9
0.069, -2.535e-9
0.070, -2.731e-9
0.071, -1.847e-9
0.072, -1.356e-9
0.073, -9.629e-10
0.074, -1.768e-10
0.075, 1.179e-10
0.076, 1.002e-9
0.077, 2.574e-9
0.078, 1.100e-9
0.079, 2.181e-9
0.080, 3.360e-9
0.081, 3.459e-9
0.082, 5.129e-9
0.083, 4.245e-9
0.084, 4.441e-9
0.085, 4.932e-9
0.086, 5.325e-9
0.087, 7.094e-9
0.088, 6.603e-9
0.089, 6.799e-9
0.090, 7.683e-9
0.091, 7.487e-9
0.092, 8.862e-9
0.093, 8.568e-9
0.094, 8.961e-9
0.095, 9.648e-9
0.096, 9.845e-9
0.097, 1.004e-8
0.098, 1.004e-8
0.099, 1.073e-8
0.100, 1.181e-8
0.101, 1.132e-8
0.102, 1.289e-8
0.103, 1.260e-8
0.104, 1.338e-8
0.105, 1.348e-8
0.106, 1.368e-8
0.107, 1.397e-8
0.108, 1.525e-8
0.109, 1.495e-8
0.110, 1.525e-8
0.111, 1.594e-8
0.112, 1.653e-8
0.113, 1.594e-8
0.114, 1.692e-8
0.115, 1.800e-8
0.116, 1.712e-8
0.117, 1.780e-8
0.118, 1.790e-8
0.119, 1.859e-8
0.120, 1.849e-8
0.121, 1.879e-8
0.122, 2.026e-8
0.123, 1.918e-8
0.124, 2.026e-8
0.125, 2.055e-8
0.126, 2.095e-8
0.127, 2.124e-8
0.128, 2.164e-8
0.129, 2.183e-8
0.130, 2.193e-8
0.131, 2.183e-8
0.132, 2.321e-8
0.133, 2.252e-8
0.134, 2.321e-8
0.135, 2.350e-8
0.136, 2.399e-8
0.137, 2.419e-8
0.138, 2.448e-8
0.139, 2.507e-8
0.140, 2.615e-8
0.141, 2.576e-8
0.142, 2.517e-8
0.143, 2.625e-8
0.144, 2.655e-8
0.145, 2.596e-8
0.146, 2.714e-8
0.147, 2.704e-8
0.148, 2.743e-8
0.149, 2.753e-8
0.150, 2.832e-8
0.151, 2.871e-8
0.152, 2.841e-8
0.153, 2.861e-8
0.154, 2.969e-8
0.155, 2.950e-8
0.156, 2.959e-8
0.157, 2.950e-8
0.158, 3.028e-8
0.159, 3.077e-8
0.160, 3.126e-8
0.161, 3.087e-8
0.162, 3.107e-8
0.163, 3.146e-8
0.164, 3.146e-8
0.165, 3.185e-8
0.166, 3.274e-8
0.167, 3.313e-8
0.168, 3.293e-8
0.169, 3.313e-8
0.170, 3.372e-8
0.171, 3.352e-8
0.172, 3.372e-8
0.173, 3.490e-8
0.174, 3.451e-8
0.175, 3.549e-8
0.176, 3.529e-8
0.177, 3.510e-8
0.178, 3.598e-8
0.179, 3.608e-8
0.180, 3.598e-8
0.181, 3.637e-8
0.182, 3.775e-8
0.183, 3.588e-8
0.184, 3.716e-8
0.185, 3.745e-8
0.186, 3.785e-8
0.187, 3.775e-8
0.188, 3.824e-8
0.189, 3.912e-8
0.190, 3.863e-8
0.191, 3.922e-8
0.192, 3.932e-8
0.193, 3.932e-8
0.194, 3.991e-8
0.195, 3.962e-8
0.196, 4.050e-8
0.197, 4.079e-8
0.198, 4.060e-8
0.199, 4.138e-8
0.200, 4.079e-8
0.201, 4.168e-8
0.202, 4.237e-8
0.203, 4.197e-8
0.204, 4.276e-8
0.205, 4.345e-8
0.206, 4.384e-8
0.207, 4.266e-8
0.208, 4.472e-8
0.209, 4.414e-8
0.210, 4.482e-8
0.211, 4.512e-8
0.212, 4.443e-8
0.213, 4.472e-8
0.214, 4.531e-8
0.215, 4.581e-8
0.216, 4.581e-8
0.217, 4.590e-8
0.218, 4.640e-8
0.219, 4.630e-8
0.220, 4.630e-8
0.221, 4.816e-8
0.222, 4.630e-8
0.223, 4.807e-8
0.224, 4.689e-8
0.225, 4.757e-8
0.226, 4.905e-8
0.227, 4.787e-8
0.228, 4.816e-8
0.229, 4.954e-8
0.230, 4.954e-8
0.231, 4.993e-8
0.232, 4.895e-8
0.233, 4.954e-8
0.234, 5.052e-8
0.235, 5.013e-8
0.236, 5.101e-8
0.237, 5.091e-8
0.238, 5.101e-8
0.239, 5.111e-8
0.240, 5.131e-8
0.241, 5.209e-8
0.242, 5.200e-8
0.243, 5.249e-8
0.244, 5.239e-8
0.245, 5.406e-8
0.246, 5.337e-8
0.247, 5.376e-8
0.248, 5.337e-8
0.249, 5.406e-8
0.250, 5.514e-8
0.251, 5.406e-8
0.252, 5.357e-8
0.253, 5.475e-8
0.254, 5.455e-8
0.255, 5.484e-8
0.256, 5.563e-8
0.257, 5.583e-8
0.258, 5.701e-8
0.259, 5.593e-8
0.260, 5.671e-8
0.261, 5.642e-8
0.262, 5.730e-8
0.263, 5.720e-8
0.264, 5.701e-8
0.265, 5.799e-8
0.266, 5.868e-8
0.267, 5.769e-8
0.268, 5.887e-8
0.269, 5.877e-8
0.270, 5.976e-8
0.271, 5.917e-8
0.272, 5.907e-8
0.273, 6.025e-8
0.274, 5.986e-8
0.275, 6.113e-8
0.276, 6.074e-8
0.277, 6.133e-8
0.278, 6.113e-8
0.279, 6.133e-8
0.280, 6.202e-8
0.281, 6.212e-8
0.282, 6.261e-8
0.283, 6.162e-8
0.284, 6.241e-8
0.285, 6.398e-8
0.286, 6.261e-8
0.287, 6.349e-8
0.288, 6.388e-8
0.289, 6.359e-8
0.290, 6.565e-8
0.291, 6.457e-8
0.292, 6.467e-8
0.293, 6.526e-8
0.294, 6.555e-8
0.295, 6.654e-8
0.296, 6.555e-8
0.297, 6.595e-8
0.298, 6.673e-8
0.299, 6.664e-8
0.300, 6.781e-8
0.301, 6.840e-8
0.302, 6.791e-8
0.303, 6.860e-8
0.304, 6.772e-8
0.305, 6.919e-8
0.306, 6.909e-8
0.307, 6.988e-8
0.308, 6.929e-8
0.309, 6.998e-8
0.310, 7.125e-8
0.311, 7.155e-8
0.312, 7.125e-8
0.313, 7.135e-8
0.314, 7.125e-8
0.315, 7.283e-8
0.316, 7.263e-8
0.317, 7.351e-8
0.318, 7.322e-8
0.319, 7.312e-8
0.320, 7.450e-8
0.321, 7.391e-8
0.322, 7.479e-8
0.323, 7.430e-8
0.324, 7.518e-8
0.325, 7.646e-8
0.326, 7.567e-8
0.327, 7.617e-8
0.328, 7.626e-8
0.329, 7.676e-8
0.330, 7.813e-8
0.331, 7.656e-8
0.332, 7.754e-8
0.333, 7.862e-8
0.334, 7.843e-8
0.335, 7.892e-8
0.336, 7.931e-8
0.337, 7.901e-8
0.338, 7.990e-8
0.339, 8.010e-8
0.340, 8.059e-8
0.341, 8.108e-8
0.342, 8.186e-8
0.343, 8.186e-8
0.344, 8.196e-8
0.345, 8.353e-8
0.346, 8.363e-8
0.347, 8.304e-8
0.348, 8.363e-8
0.349, 8.452e-8
0.350, 8.481e-8
0.351, 8.520e-8
0.352, 8.550e-8
0.353, 8.579e-8
0.354, 8.589e-8
0.355, 8.658e-8
0.356, 8.707e-8
0.357, 8.786e-8
0.358, 8.786e-8
0.359, 8.894e-8
0.360, 8.923e-8
0.361, 8.884e-8
0.362, 8.992e-8
0.363, 8.972e-8
0.364, 9.012e-8
0.365, 9.208e-8
0.366, 9.100e-8
0.367, 9.267e-8
0.368, 9.257e-8
0.369, 9.238e-8
0.370, 9.424e-8
0.371, 9.434e-8
0.372, 9.424e-8
0.373, 9.503e-8
0.374, 9.542e-8
0.375, 9.621e-8
0.376, 9.631e-8
0.377, 9.729e-8
0.378, 9.817e-8
0.379, 9.778e-8
0.380, 9.886e-8
0.381, 9.965e-8
0.382, 9.965e-8
0.383, 1.003e-7
0.384, 1.012e-7
0.385, 1.012e-7
0.386, 1.022e-7
0.387, 1.024e-7
0.388, 1.023e-7
0.389, 1.039e-7
0.390, 1.050e-7
0.391, 1.058e-7
0.392, 1.053e-7
0.393, 1.064e-7
0.394, 1.066e-7
0.395, 1.075e-7
0.396, 1.084e-7
0.397, 1.096e-7
0.398, 1.101e-7
0.399, 1.114e-7
0.400, 1.124e-7
0.401, 1.123e-7
0.402, 1.137e-7
0.403, 1.140e-7
0.404, 1.152e-7
0.405, 1.164e-7
0.406, 1.168e-7
0.407, 1.184e-7
0.408, 1.192e-7
0.409, 1.212e-7
0.410, 1.223e-7
0.411, 1.223e-7
0.412, 1.232e-7
0.413, 1.244e-7
0.414, 1.248e-7
0.415, 1.264e-7
0.416, 1.275e-7
0.417, 1.286e-7
0.418, 1.299e-7
0.419, 1.307e-7
0.420, 1.322e-7
0.421, 1.333e-7
0.422, 1.356e-7
0.423, 1.367e-7
0.424, 1.372e-7
0.425, 1.390e-7
0.426, 1.401e-7
0.427, 1.422e-7
0.428, 1.436e-7
0.429, 1.455e-7
0.430, 1.468e-7
0.431, 1.484e-7
0.432, 1.493e-7
0.433, 1.515e-7
0.434, 1.524e-7
0.435, 1.549e-7
0.436, 1.571e-7
0.437, 1.592e-7
0.438, 1.608e-7
0.439, 1.637e-7
0.440, 1.649e-7
0.441, 1.672e-7
0.442, 1.695e-7
0.443, 1.710e-7
0.444, 1.747e-7
0.445, 1.770e-7
0.446, 1.783e-7
0.447, 1.806e-7
0.448, 1.838e-7
0.449, 1.866e-7
0.450, 1.900e-7
0.451, 1.918e-7
0.452, 1.947e-7
0.453, 1.977e-7
0.454, 2.012e-7
0.455, 2.044e-7
0.456, 2.063e-7
0.457, 2.102e-7
0.458, 2.137e-7
0.459, 2.169e-7
0.460, 2.217e-7
0.461, 2.246e-7
0.462, 2.279e-7
0.463, 2.318e-7
0.464, 2.359e-7
0.465, 2.382e-7
0.466, 2.434e-7
0.467, 2.475e-7
0.468, 2.511e-7
0.469, 2.561e-7
0.470, 2.592e-7
0.471, 2.648e-7
0.472, 2.678e-7
0.473, 2.734e-7
0.474, 2.789e-7
0.475, 2.821e-7
0.476, 2.876e-7
0.477, 2.935e-7
0.478, 2.979e-7
0.479, 3.037e-7
0.480, 3.089e-7
0.481, 3.138e-7
0.482, 3.196e-7
0.483, 3.258e-7
0.484, 3.321e-7
0.485, 3.387e-7
0.486, 3.444e-7
0.487, 3.506e-7
0.488, 3.566e-7
0.489, 3.632e-7
0.490, 3.699e-7
0.491, 3.757e-7
0.492, 3.834e-7
0.493, 3.897e-7
0.494, 3.961e-7
0.495, 4.032e-7
0.496, 4.087e-7
0.497, 4.158e-7
0.498, 4.233e-7
0.499, 4.306e-7
0.500, 4.368e-7
0.501, 4.441e-7
0.502, 4.512e-7
0.503, 4.594e-7
0.504, 4.651e-7
0.505, 4.724e-7
0.506, 4.807e-7
0.507, 4.875e-7
0.508, 4.939e-7
0.509, 5.022e-7
0.510, 5.081e-7
0.511, 5.166e-7
0.512, 5.239e-7
0.513, 5.297e-7
0.514, 5.370e-7
0.515, 5.438e-7
0.516, 5.504e-7
0.517, 5.567e-7
0.518, 5.650e-7
0.519, 5.714e-7
0.520, 5.777e-7
0.521, 5.843e-7
0.522, 5.922e-7
0.523, 5.981e-7
0.524, 6.057e-7
0.525, 6.137e-7
0.526, 6.186e-7
0.527, 6.271e-7
0.528, 6.329e-7
0.529, 6.388e-7
0.530, 6.478e-7
0.531, 6.538e-7
0.532, 6.600e-7
0.533, 6.680e-7
0.534, 6.741e-7
0.535, 6.822e-7
0.536, 6.878e-7
0.537, 6.953e-7
0.538, 7.030e-7
0.539, 7.085e-7
0.540, 7.159e-7
0.541, 7.237e-7
0.542, 7.295e-7
0.543, 7.381e-7
0.544, 7.458e-7
0.545, 7.519e-7
0.546, 7.605e-7
0.547, 7.681e-7
0.548, 7.760e-7
0.549, 7.859e-7
0.550, 7.929e-7
0.551, 8.019e-7
0.552, 8.087e-7
0.553, 8.182e-7
0.554, 8.292e-7
0.555, 8.365e-7
0.556, 8.465e-7
0.557, 8.574e-7
0.558, 8.668e-7
0.559, 8.788e-7
0.560, 8.892e-7
0.561, 9.001e-7
0.562, 9.124e-7
0.563, 9.269e-7
0.564, 9.375e-7
0.565, 9.514e-7
0.566, 9.639e-7
0.567, 9.787e-7
0.568, 9.920e-7
0.569, 1.008e-6
0.570, 1.026e-6
0.571, 1.041e-6
0.572, 1.061e-6
0.573, 1.080e-6
0.574, 1.098e-6
0.575, 1.119e-6
0.576, 1.139e-6
0.577, 1.161e-6
0.578, 1.185e-6
0.579, 1.208e-6
0.580, 1.231e-6
0.581, 1.256e-6
0.582, 1.283e-6
0.583, 1.312e-6
0.584, 1.339e-6
0.585, 1.371e-6
0.586, 1.400e-6
0.587, 1.432e-6
0.588, 1.467e-6
0.589, 1.502e-6
0.590, 1.535e-6
0.591, 1.573e-6
0.592, 1.611e-6
0.593, 1.653e-6
0.594, 1.696e-6
0.595, 1.740e-6
0.596, 1.785e-6
0.597, 1.832e-6
0.598, 1.882e-6
0.599, 1.935e-6
0.600, 1.985e-6
0.601, 2.041e-6
0.602, 2.101e-6
0.603, 2.157e-6
0.604, 2.219e-6
0.605, 2.285e-6
0.606, 2.351e-6
0.607, 2.420e-6
0.608, 2.493e-6
0.609, 2.565e-6
0.610, 2.647e-6
0.611, 2.722e-6
0.612, 2.807e-6
0.613, 2.895e-6
0.614, 2.989e-6
0.615, 3.075e-6
0.616, 3.162e-6
0.617, 3.263e-6
0.618, 3.368e-6
0.619, 3.467e-6
0.620, 3.583e-6
0.621, 3.694e-6
0.622, 3.808e-6
0.623, 3.938e-6
0.624, 4.057e-6
0.625, 4.190e-6
0.626, 4.328e-6
0.627, 4.464e-6
0.628, 4.612e-6
0.629, 4.755e-6
0.630, 4.911e-6
0.631, 5.070e-6
0.632, 5.229e-6
0.633, 5.406e-6
0.634, 5.581e-6
0.635, 5.756e-6
0.636, 5.947e-6
0.637, 6.139e-6
0.638, 6.339e-6
0.639, 6.547e-6
0.640, 6.761e-6
0.641, 6.977e-6
0.642, 7.206e-6
0.643, 7.435e-6
0.644, 7.674e-6
0.645, 7.921e-6
0.646, 8.174e-6
0.647, 8.442e-6
0.648, 8.698e-6
0.649, 8.975e-6
0.650, 9.262e-6
0.651, 9.554e-6
0.652, 9.855e-6
0.653, 1.016e-5
0.654, 1.047e-5
0.655, 1.081e-5
0.656, 1.114e-5
0.657, 1.148e-5
0.658, 1.184e-5
0.659, 1.219e-5
0.660, 1.257e-5
0.661, 1.293e-5
0.662, 1.332e-5
0.663, 1.373e-5
0.664, 1.413e-5
0.665, 1.457e-5
0.666, 1.501e-5
0.667, 1.544e-5
0.668, 1.590e-5
0.669, 1.636e-5
0.670, 1.683e-5
0.671, 1.732e-5
0.672, 1.780e-5
0.673, 1.831e-5
0.674, 1.882e-5
0.675, 1.934e-5
0.676, 1.988e-5
0.677, 2.041e-5
0.678, 2.096e-5
0.679, 2.153e-5
0.680, 2.208e-5
0.681, 2.267e-5
0.682, 2.327e-5
0.683, 2.386e-5
0.684, 2.447e-5
0.685, 2.509e-5
0.686, 2.571e-5
0.687, 2.636e-5
0.688, 2.701e-5
0.689, 2.768e-5
0.690, 2.835e-5
0.691, 2.903e-5
0.692, 2.972e-5
0.693, 3.040e-5
0.694, 3.111e-5
0.695, 3.183e-5
0.696, 3.253e-5
0.697, 3.326e-5
0.698, 3.400e-5
0.699, 3.471e-5
0.700, 3.547e-5
0.701, 3.622e-5
0.702, 3.698e-5
0.703, 3.775e-5
0.704, 3.852e-5
0.705, 3.929e-5
0.706, 4.005e-5
0.707, 4.083e-5
0.708, 4.162e-5
0.709, 4.238e-5
0.710, 4.317e-5
0.711, 4.397e-5
0.712, 4.473e-5
0.713, 4.554e-5
0.714, 4.633e-5
0.715, 4.712e-5
0.716, 4.793e-5
0.717, 4.875e-5
0.718, 4.952e-5
0.719, 5.032e-5
0.720, 5.110e-5
0.721, 5.189e-5
0.722, 5.267e-5
0.723, 5.346e-5
0.724, 5.425e-5
0.725, 5.502e-5
0.726, 5.580e-5
0.727, 5.658e-5
0.728, 5.733e-5
0.729, 5.810e-5
0.730, 5.886e-5
0.731, 5.958e-5
0.732, 6.033e-5
0.733, 6.105e-5
0.734, 6.178e-5
0.735, 6.249e-5
0.736, 6.320e-5
0.737, 6.389e-5
0.738, 6.457e-5
0.739, 6.524e-5
0.740, 6.589e-5
0.741, 6.652e-5
0.742, 6.719e-5
0.743, 6.780e-5
0.744, 6.838e-5
0.745, 6.899e-5
0.746, 6.958e-5
0.747, 7.013e-5
0.748, 7.070e-5
0.749, 7.122e-5
0.750, 7.174e-5
0.751, 7.225e-5
0.752, 7.272e-5
0.753, 7.322e-5
0.754, 7.366e-5
0.755, 7.412e-5
0.756, 7.454e-5
0.757, 7.493e-5
0.758, 7.532e-5
0.759, 7.569e-5
0.760, 7.604e-5
0.761, 7.639e-5
0.762, 7.671e-5
0.763, 7.701e-5
0.764, 7.729e-5
0.765, 7.756e-5
0.766, 7.781e-5
0.767, 7.804e-5
0.768, 7.827e-5
0.769, 7.847e-5
0.770, 7.864e-5
0.771, 7.880e-5
0.772, 7.894e-5
0.773, 7.906e-5
0.774, 7.917e-5
0.775, 7.928e-5
0.776, 7.933e-5
0.777, 7.939e-5
0.778, 7.944e-5
0.779, 7.946e-5
0.780, 7.947e-5
0.781, 7.947e-5
0.782, 7.944e-5
0.783, 7.941e-5
0.784, 7.935e-5
0.785, 7.929e-5
0.786, 7.920e-5
0.787, 7.911e-5
0.788, 7.901e-5
0.789, 7.887e-5
0.790, 7.874e-5
0.791, 7.860e-5
0.792, 7.842e-5
0.793, 7.826e-5
0.794, 7.807e-5
0.795, 7.786e-5
0.796, 7.766e-5
0.797, 7.743e-5
0.798, 7.719e-5
0.799, 7.695e-5
0.800, 7.670e-5
0.801, 7.643e-5
0.802, 7.616e-5
0.803, 7.587e-5
0.804, 7.559e-5
0.805, 7.529e-5
0.806, 7.498e-5
0.807, 7.467e-5
0.808, 7.434e-5
0.809, 7.401e-5
0.810, 7.369e-5
0.811, 7.334e-5
0.812, 7.300e-5
0.813, 7.265e-5
0.814, 7.229e-5
0.815, 7.194e-5
0.816, 7.158e-5
0.817, 7.122e-5
0.818, 7.086e-5
0.819, 7.052e-5
0.820, 7.015e-5
0.821, 6.977e-5
0.822, 6.939e-5
0.823, 6.902e-5
0.824, 6.864e-5
0.825, 6.827e-5
0.826, 6.790e-5
0.827, 6.753e-5
0.828, 6.717e-5
0.829, 6.681e-5
0.830, 6.644e-5
0.831, 6.609e-5
0.832, 6.573e-5
0.833, 6.538e-5
0.834, 6.503e-5
0.835, 6.469e-5
0.836, 6.435e-5
0.837, 6.401e-5
0.838, 6.369e-5
0.839, 6.336e-5
0.840, 6.303e-5
0.841, 6.272e-5
0.842, 6.241e-5
0.843, 6.210e-5
0.844, 6.180e-5
0.845, 6.150e-5
0.846, 6.120e-5
0.847, 6.092e-5
0.848, 6.064e-5
0.849, 6.036e-5
0.850, 6.010e-5
0.851, 5.984e-5
0.852, 5.959e-5
0.853, 5.933e-5
0.854, 5.909e-5
0.855, 5.886e-5
0.856, 5.862e-5
0.857, 5.840e-5
0.858, 5.819e-5
0.859, 5.797e-5
0.860, 5.776e-5
0.861, 5.756e-5
0.862, 5.737e-5
0.863, 5.719e-5
0.864, 5.700e-5
0.865, 5.684e-5
0.866, 5.667e-5
0.867, 5.651e-5
0.868, 5.636e-5
0.869, 5.621e-5
0.870, 5.608e-5
0.871, 5.595e-5
0.872, 5.582e-5
0.873, 5.571e-5
0.874, 5.560e-5
0.875, 5.549e-5
0.876, 5.540e-5
0.877, 5.531e-5
0.878, 5.523e-5
0.879, 5.516e-5
0.880, 5.509e-5
0.881, 5.503e-5
0.882, 5.498e-5
0.883, 5.494e-5
0.884, 5.491e-5
0.885, 5.488e-5
0.886, 5.486e-5
0.887, 5.486e-5
0.888, 5.485e-5
0.889, 5.486e-5
0.890, 5.488e-5
0.891, 5.490e-5
0.892, 5.494e-5
0.893, 5.498e-5
0.894, 5.503e-5
0.895, 5.510e-5
0.896, 5.517e-5
0.897, 5.524e-5
0.898, 5.534e-5
0.899, 5.543e-5
0.900, 5.554e-5
0.901, 5.566e-5
0.902, 5.579e-5
0.903, 5.593e-5
0.904, 5.606e-5
0.905, 5.623e-5
0.906, 5.640e-5
0.907, 5.657e-5
0.908, 5.678e-5
0.909, 5.697e-5
0.910, 5.718e-5
0.911, 5.741e-5
0.912, 5.764e-5
0.913, 5.789e-5
0.914, 5.814e-5
0.915, 5.841e-5
0.916, 5.870e-5
0.917, 5.897e-5
0.918, 5.928e-5
0.919, 5.959e-5
0.920, 5.991e-5
0.921, 6.026e-5
0.922, 6.062e-5
0.923, 6.096e-5
0.924, 6.133e-5
0.925, 6.170e-5
0.926, 6.210e-5
0.927, 6.250e-5
0.928, 6.291e-5
0.929, 6.333e-5
0.930, 6.376e-5
0.931, 6.420e-5
0.932, 6.466e-5
0.933, 6.512e-5
0.934, 6.560e-5
0.935, 6.609e-5
0.936, 6.656e-5
0.937, 6.709e-5
0.938, 6.760e-5
0.939, 6.811e-5
0.940, 6.865e-5
0.941, 6.920e-5
0.942, 6.974e-5
0.943, 7.032e-5
0.944, 7.087e-5
0.945, 7.146e-5
0.946, 7.205e-5
0.947, 7.263e-5
0.948, 7.325e-5
0.949, 7.383e-5
0.950, 7.445e-5
0.951, 7.507e-5
0.952, 7.567e-5
0.953, 7.632e-5
0.954, 7.695e-5
0.955, 7.757e-5
0.956, 7.823e-5
0.957, 7.886e-5
0.958, 7.950e-5
0.959, 8.016e-5
0.960, 8.081e-5
0.961, 8.147e-5
0.962, 8.211e-5
0.963, 8.277e-5
0.964, 8.344e-5
0.965, 8.409e-5
0.966, 8.475e-5
0.967, 8.542e-5
0.968, 8.605e-5
0.969, 8.672e-5
0.970, 8.737e-5
0.971, 8.800e-5
0.972, 8.865e-5
0.973, 8.933e-5
0.974, 8.996e-5
0.975, 9.058e-5
0.976, 9.120e-5
0.977, 9.184e-5
0.978, 9.245e-5
0.979, 9.306e-5
0.980, 9.369e-5
0.981, 9.427e-5
0.982, 9.486e-5
0.983, 9.546e-5
0.984, 9.601e-5
0.985, 9.658e-5
0.986, 9.714e-5
0.987, 9.767e-5
0.988, 9.822e-5
0.989, 9.874e-5
0.990, 9.924e-5
0.991, 9.976e-5
0.992, 1.002e-4
0.993, 1.007e-4
0.994, 1.012e-4
0.995, 1.017e-4
0.996, 1.021e-4
0.997, 1.025e-4
0.998, 1.030e-4
0.999, 1.034e-4
1.000, 1.037e-4
1.001, 1.041e-4
1.002, 1.045e-4
1.003, 1.048e-4
1.004, 1.052e-4
1.005, 1.055e-4
1.006, 1.058e-4
1.007, 1.061e-4
1.008, 1.064e-4
1.009, 1.067e-4
1.010, 1.069e-4
1.011, 1.071e-4
1.012, 1.074e-4
1.013, 1.076e-4
1.014, 1.078e-4
1.015, 1.079e-4
1.016, 1.081e-4
1.017, 1.083e-4
1.018, 1.084e-4
1.019, 1.085e-4
1.020, 1.086e-4
1.021, 1.087e-4
1.022, 1.088e-4
1.023, 1.088e-4
1.024, 1.089e-4
1.025, 1.089e-4
1.026, 1.090e-4
1.027, 1.090e-4
1.028, 1.090e-4
1.029, 1.089e-4
1.030, 1.089e-4
1.031, 1.089e-4
1.032, 1.088e-4
1.033, 1.087e-4
1.034, 1.086e-4
1.035, 1.085e-4
1.036, 1.084e-4
1.037, 1.083e-4
1.038, 1.082e-4
1.039, 1.080e-4
1.040, 1.079e-4
1.041, 1.077e-4
1.042, 1.075e-4
1.043, 1.073e-4
1.044, 1.071e-4
1.045, 1.069e-4
1.046, 1.067e-4
1.047, 1.065e-4
1.048, 1.062e-4
1.049, 1.060e-4
1.050, 1.057e-4
1.051, 1.055e-4
1.052, 1.052e-4
1.053, 1.049e-4
1.054, 1.046e-4
1.055, 1.043e-4
1.056, 1.040e-4
1.057, 1.037e-4
1.058, 1.034e-4
1.059, 1.031e-4
1.060, 1.027e-4
1.061, 1.024e-4
1.062, 1.021e-4
1.063, 1.017e-4
1.064, 1.014e-4
1.065, 1.010e-4
1.066, 1.007e-4
1.067, 1.003e-4
1.068, 9.994e-5
1.069, 9.957e-5
1.070, 9.920e-5
1.071, 9.884e-5
1.072, 9.846e-5
1.073, 9.809e-5
1.074, 9.772e-5
1.075, 9.735e-5
1.076, 9.698e-5
1.077, 9.660e-5
1.078, 9.622e-5
1.079, 9.585e-5
1.080, 9.547e-5
1.081, 9.510e-5
1.082, 9.473e-5
1.083, 9.436e-5
1.084, 9.399e-5
1.085, 9.363e-5
1.086, 9.326e-5
1.087, 9.290e-5
1.088, 9.254e-5
1.089, 9.218e-5
1.090, 9.183e-5
1.091, 9.148e-5
1.092, 9.113e-5
1.093, 9.079e-5
1.094, 9.045e-5
1.095, 9.012e-5
1.096, 8.978e-5
1.097, 8.945e-5
1.098, 8.913e-5
1.099, 8.880e-5
1.100, 8.849e-5
1.101, 8.818e-5
1.102, 8.787e-5
1.103, 8.757e-5
1.104, 8.726e-5
1.105, 8.696e-5
1.106, 8.668e-5
1.107, 8.638e-5
1.108, 8.610e-5
1.109, 8.581e-5
1.110, 8.554e-5
1.111, 8.526e-5
1.112, 8.499e-5
1.113, 8.472e-5
1.114, 8.446e-5
1.115, 8.420e-5
1.116, 8.395e-5
1.117, 8.369e-5
1.118, 8.345e-5
1.119, 8.320e-5
1.120, 8.296e-5
1.121, 8.272e-5
1.122, 8.249e-5
1.123, 8.226e-5
1.124, 8.203e-5
1.125, 8.180e-5
1.126, 8.159e-5
1.127, 8.137e-5
1.128, 8.115e-5
1.129, 8.094e-5
1.130, 8.073e-5
1.131, 8.053e-5
1.132, 8.032e-5
1.133, 8.012e-5
1.134, 7.992e-5
1.135, 7.973e-5
1.136, 7.954e-5
1.137, 7.935e-5
1.138, 7.916e-5
1.139, 7.898e-5
1.140, 7.879e-5
1.141, 7.861e-5
1.142, 7.844e-5
1.143, 7.827e-5
1.144, 7.809e-5
1.145, 7.792e-5
1.146, 7.776e-5
1.147, 7.759e-5
1.148, 7.742e-5
1.149, 7.726e-5
1.150, 7.710e-5
1.151, 7.695e-5
1.152, 7.679e-5
1.153, 7.664e-5
1.154, 7.649e-5
1.155, 7.634e-5
1.156, 7.619e-5
1.157, 7.605e-5
1.158, 7.591e-5
1.159, 7.577e-5
1.160, 7.563e-5
1.161, 7.550e-5
1.162, 7.536e-5
1.163, 7.523e-5
1.164, 7.510e-5
1.165, 7.497e-5
1.166, 7.484e-5
1.167, 7.471e-5
1.168, 7.459e-5
1.169, 7.446e-5
1.170, 7.434e-5
1.171, 7.422e-5
1.172, 7.410e-5
1.173, 7.399e-5
1.174, 7.387e-5
1.175, 7.376e-5
1.176, 7.364e-5
1.177, 7.353e-5
1.178, 7.343e-5
1.179, 7.331e-5
1.180, 7.321e-5
1.181, 7.310e-5
1.182, 7.299e-5
1.183, 7.290e-5
1.184, 7.279e-5
1.185, 7.269e-5
1.186, 7.260e-5
1.187, 7.250e-5
1.188, 7.240e-5
1.189, 7.231e-5
1.190, 7.221e-5
1.191, 7.212e-5
1.192, 7.203e-5
1.193, 7.194e-5
1.194, 7.185e-5
1.195, 7.176e-5
1.196, 7.168e-5
1.197, 7.159e-5
1.198, 7.150e-5
1.199, 7.142e-5
1.200, 7.134e-5
1.201, 7.126e-5
1.202, 7.117e-5
1.203, 7.110e-5
1.204, 7.102e-5
1.205, 7.094e-5
1.206, 7.087e-5
1.207, 7.079e-5
1.208, 7.072e-5
1.209, 7.064e-5
1.210, 7.057e-5
1.211, 7.050e-5
1.212, 7.043e-5
1.213, 7.036e-5
1.214, 7.029e-5
1.215, 7.022e-5
1.216, 7.015e-5
1.217, 7.008e-5
1.218, 7.002e-5
1.219, 6.996e-5
1.220, 6.989e-5
1.221, 6.983e-5
1.222, 6.977e-5
1.223, 6.971e-5
1.224, 6.964e-5
1.225, 6.958e-5
1.226, 6.953e-5
1.227, 6.947e-5
1.228, 6.941e-5
1.229, 6.935e-5
1.230, 6.929e-5
1.231, 6.924e-5
1.232, 6.918e-5
1.233, 6.913e-5
1.234, 6.908e-5
1.235, 6.903e-5
1.236, 6.897e-5
1.237, 6.892e-5
1.238, 6.887e-5
1.239, 6.883e-5
1.240, 6.878e-5
1.241, 6.873e-5
1.242, 6.868e-5
1.243, 6.864e-5
1.244, 6.859e-5
1.245, 6.855e-5
1.246, 6.851e-5
1.247, 6.847e-5
1.248, 6.842e-5
1.249, 6.838e-5
1.250, 6.834e-5
1.251, 6.830e-5
1.252, 6.826e-5
1.253, 6.822e-5
1.254, 6.819e-5
1.255, 6.815e-5
1.256, 6.811e-5
1.257, 6.807e-5
1.258, 6.804e-5
1.259, 6.801e-5
1.260, 6.797e-5
1.261, 6.794e-5
1.262, 6.791e-5
1.263, 6.788e-5
1.264, 6.785e-5
1.265, 6.782e-5
1.266, 6.779e-5
1.267, 6.776e-5
1.268, 6.774e-5
1.269, 6.771e-5
1.270, 6.769e-5
1.271, 6.766e-5
1.272, 6.764e-5
1.273, 6.761e-5
1.274, 6.759e-5
1.275, 6.757e-5
1.276, 6.754e-5
1.277, 6.752e-5
1.278, 6.750e-5
1.279, 6.748e-5
1.280, 6.746e-5
1.281, 6.745e-5
1.282, 6.743e-5
1.283, 6.741e-5
1.284, 6.740e-5
1.285, 6.738e-5
1.286, 6.737e-5
1.287, 6.735e-5
1.288, 6.734e-5
1.289, 6.733e-5
1.290, 6.732e-5
1.291, 6.730e-5
1.292, 6.729e-5
1.293, 6.728e-5
1.294, 6.727e-5
1.295, 6.726e-5
1.296, 6.726e-5
1.297, 6.725e-5
1.298, 6.724e-5
1.299, 6.723e-5
1.300, 6.723e-5
1.301, 6.722e-5
1.302, 6.722e-5
1.303, 6.722e-5
1.304, 6.721e-5
1.305, 6.721e-5
1.306, 6.721e-5
1.307, 6.720e-5
1.308, 6.721e-5
1.309, 6.720e-5
1.310, 6.720e-5
1.311, 6.721e-5
1.312, 6.721e-5
1.313, 6.721e-5
1.314, 6.721e-5
1.315, 6.722e-5
1.316, 6.722e-5
1.317, 6.722e-5
1.318, 6.723e-5
1.319, 6.723e-5
1.320, 6.724e-5
1.321, 6.725e-5
1.322, 6.725e-5
1.323, 6.726e-5
1.324, 6.727e-5
1.325, 6.728e-5
1.326, 6.728e-5
1.327, 6.729e-5
1.328, 6.730e-5
1.329, 6.731e-5
1.330, 6.732e-5
1.331, 6.733e-5
1.332, 6.734e-5
1.333, 6.736e-5
1.334, 6.737e-5
1.335, 6.738e-5
1.336, 6.740e-5
1.337, 6.741e-5
1.338, 6.742e-5
1.339, 6.744e-5
1.340, 6.745e-5
1.341, 6.747e-5
1.342, 6.748e-5
1.343, 6.750e-5
1.344, 6.751e-5
1.345, 6.753e-5
1.346, 6.754e-5
1.347, 6.756e-5
1.348, 6.758e-5
1.349, 6.760e-5
1.350, 6.762e-5
1.351, 6.764e-5
1.352, 6.766e-5
1.353, 6.767e-5
1.354, 6.769e-5
1.355, 6.771e-5
1.356, 6.773e-5
1.357, 6.775e-5
1.358, 6.777e-5
1.359, 6.779e-5
1.360, 6.781e-5
1.361, 6.783e-5
1.362, 6.785e-5
1.363, 6.787e-5
1.364, 6.789e-5
1.365, 6.792e-5
1.366, 6.794e-5
1.367, 6.796e-5
1.368, 6.798e-5
1.369, 6.800e-5
1.370, 6.803e-5
1.371, 6.805e-5
1.372, 6.807e-5
1.373, 6.810e-5
1.374, 6.811e-5
1.375, 6.814e-5
1.376, 6.816e-5
1.377, 6.818e-5
1.378, 6.821e-5
1.379, 6.823e-5
1.380, 6.826e-5
1.381, 6.828e-5
1.382, 6.830e-5
1.383, 6.833e-5
1.384, 6.835e-5
1.385, 6.837e-5
1.386, 6.839e-5
1.387, 6.842e-5
1.388, 6.844e-5
1.389, 6.847e-5
1.390, 6.849e-5
1.391, 6.852e-5
1.392, 6.854e-5
1.393, 6.856e-5
1.394, 6.859e-5
1.395, 6.861e-5
1.396, 6.864e-5
1.397, 6.866e-5
1.398, 6.868e-5
1.399, 6.871e-5
1.400, 6.873e-5
1.401, 6.876e-5
1.402, 6.878e-5
1.403, 6.880e-5
1.404, 6.883e-5
1.405, 6.885e-5
1.406, 6.888e-5
1.407, 6.890e-5
1.408, 6.893e-5
1.409, 6.895e-5
1.410, 6.897e-5
1.411, 6.900e-5
1.412, 6.902e-5
1.413, 6.905e-5
1.414, 6.907e-5
1.415, 6.909e-5
1.416, 6.912e-5
1.417, 6.914e-5
1.418, 6.916e-5
1.419, 6.919e-5
1.420, 6.921e-5
1.421, 6.924e-5
1.422, 6.926e-5
1.423, 6.928e-5
1.424, 6.931e-5
1.425, 6.933e-5
1.426, 6.935e-5
1.427, 6.938e-5
1.428, 6.940e-5
1.429, 6.942e-5
1.430, 6.945e-5
1.431, 6.947e-5
1.432, 6.949e-5
1.433, 6.952e-5
1.434, 6.954e-5
1.435, 6.956e-5
1.436, 6.959e-5
1.437, 6.961e-5
1.438, 6.963e-5
1.439, 6.965e-5
1.440, 6.968e-5
1.441, 6.970e-5
1.442, 6.972e-5
1.443, 6.974e-5
1.444, 6.976e-5
1.445, 6.979e-5
1.446, 6.981e-5
1.447, 6.983e-5
1.448, 6.985e-5
1.449, 6.987e-5
1.450, 6.989e-5
1.451, 6.991e-5
1.452, 6.993e-5
1.453, 6.995e-5
1.454, 6.997e-5
1.455, 6.999e-5
1.456, 7.000e-5
1.457, 7.002e-5
1.458, 7.004e-5
1.459, 7.006e-5
1.460, 7.008e-5
1.461, 7.010e-5
1.462, 7.012e-5
1.463, 7.014e-5
1.464, 7.015e-5
1.465, 7.017e-5
1.466, 7.019e-5
1.467, 7.021e-5
1.468, 7.022e-5
1.469, 7.024e-5
1.470, 7.025e-5
1.471, 7.027e-5
1.472, 7.029e-5
1.473, 7.030e-5
1.474, 7.032e-5
1.475, 7.034e-5
1.476, 7.035e-5
1.477, 7.037e-5
1.478, 7.038e-5
1.479, 7.040e-5
1.480, 7.041e-5
1.481, 7.042e-5
1.482, 7.044e-5
1.483, 7.045e-5
1.484, 7.046e-5
1.485, 7.048e-5
1.486, 7.049e-5
1.487, 7.050e-5
1.488, 7.051e-5
1.489, 7.052e-5
1.490, 7.053e-5
1.491, 7.055e-5
1.492, 7.056e-5
1.493, 7.057e-5
1.494, 7.058e-5
1.495, 7.059e-5
1.496, 7.060e-5
1.497, 7.061e-5
1.498, 7.062e-5
1.499, 7.063e-5
1.500, 7.064e-5
1.501, 7.065e-5
1.502, 7.066e-5
1.503, 7.067e-5
1.504, 7.068e-5
1.505, 7.068e-5
1.506, 7.069e-5
1.507, 7.070e-5
1.508, 7.071e-5
1.509, 7.072e-5
1.510, 7.072e-5
1.511, 7.073e-5
1.512, 7.073e-5
1.513, 7.074e-5
1.514, 7.075e-5
1.515, 7.075e-5
1.516, 7.076e-5
1.517, 7.076e-5
1.518, 7.077e-5
1.519, 7.077e-5
1.520, 7.077e-5
1.521, 7.078e-5
1.522, 7.078e-5
1.523, 7.078e-5
1.524, 7.079e-5
1.525, 7.079e-5
1.526, 7.080e-5
1.527, 7.080e-5
1.528, 7.080e-5
1.529, 7.080e-5
1.530, 7.080e-5
1.531, 7.081e-5
1.532, 7.081e-5
1.533, 7.081e-5
1.534, 7.081e-5
1.535, 7.081e-5
1.536, 7.081e-5
1.537, 7.081e-5
1.538, 7.082e-5
1.539, 7.081e-5
1.540, 7.081e-5
1.541, 7.081e-5
1.542, 7.081e-5
1.543, 7.081e-5
1.544, 7.081e-5
1.545, 7.081e-5
1.546, 7.081e-5
1.547, 7.081e-5
1.548, 7.081e-5
1.549, 7.080e-5
1.550, 7.080e-5
1.551, 7.080e-5
1.552, 7.079e-5
1.553, 7.079e-5
1.554, 7.079e-5
1.555, 7.079e-5
1.556, 7.078e-5
1.557, 7.078e-5
1.558, 7.077e-5
1.559, 7.077e-5
1.560, 7.076e-5
1.561, 7.076e-5
1.562, 7.075e-5
1.563, 7.075e-5
1.564, 7.074e-5
1.565, 7.074e-5
1.566, 7.073e-5
1.567, 7.073e-5
1.568, 7.072e-5
1.569, 7.071e-5
1.570, 7.071e-5
1.571, 7.070e-5
1.572, 7.069e-5
1.573, 7.068e-5
1.574, 7.068e-5
1.575, 7.067e-5
1.576, 7.066e-5
1.577, 7.066e-5
1.578, 7.065e-5
1.579, 7.064e-5
1.580, 7.063e-5
1.581, 7.063e-5
1.582, 7.062e-5
1.583, 7.061e-5
1.584, 7.060e-5
1.585, 7.059e-5
1.586, 7.058e-5
1.587, 7.057e-5
1.588, 7.056e-5
1.589, 7.056e-5
1.590, 7.055e-5
1.591, 7.054e-5
1.592, 7.053e-5
1.593, 7.052e-5
1.594, 7.052e-5
1.595, 7.051e-5
1.596, 7.050e-5
1.597, 7.049e-5
1.598, 7.048e-5
1.599, 7.047e-5
1.600, 7.028e-5
1.599, 7.019e-5
1.598, 7.014e-5
1.597, 7.009e-5
1.596, 7.005e-5
1.595, 7.001e-5
1.594, 6.998e-5
1.593, 6.994e-5
1.592, 6.991e-5
1.591, 6.987e-5
1.590, 6.984e-5
1.589, 6.981e-5
1.588, 6.978e-5
1.587, 6.975e-5
1.586, 6.972e-5
1.585, 6.969e-5
1.584, 6.967e-5
1.583, 6.964e-5
1.582, 6.961e-5
1.581, 6.958e-5
1.580, 6.956e-5
1.579, 6.954e-5
1.578, 6.951e-5
1.577, 6.949e-5
1.576, 6.947e-5
1.575, 6.944e-5
1.574, 6.942e-5
1.573, 6.940e-5
1.572, 6.938e-5
1.571, 6.936e-5
1.570, 6.933e-5
1.569, 6.931e-5
1.568, 6.929e-5
1.567, 6.927e-5
1.566, 6.925e-5
1.565, 6.923e-5
1.564, 6.922e-5
1.563, 6.920e-5
1.562, 6.918e-5
1.561, 6.916e-5
1.560, 6.914e-5
1.559, 6.913e-5
1.558, 6.911e-5
1.557, 6.910e-5
1.556, 6.908e-5
1.555, 6.906e-5
1.554, 6.905e-5
1.553, 6.903e-5
1.552, 6.902e-5
1.551, 6.900e-5
1.550, 6.899e-5
1.549, 6.897e-5
1.548, 6.896e-5
1.547, 6.895e-5
1.546, 6.893e-5
1.545, 6.892e-5
1.544, 6.891e-5
1.543, 6.890e-5
1.542, 6.889e-5
1.541, 6.888e-5
1.540, 6.886e-5
1.539, 6.886e-5
1.538, 6.884e-5
1.537, 6.884e-5
1.536, 6.883e-5
1.535, 6.882e-5
1.534, 6.881e-5
1.533, 6.880e-5
1.532, 6.879e-5
1.531, 6.878e-5
1.530, 6.877e-5
1.529, 6.877e-5
1.528, 6.876e-5
1.527, 6.875e-5
1.526, 6.874e-5
1.525, 6.874e-5
1.524, 6.873e-5
1.523, 6.873e-5
1.522, 6.873e-5
1.521, 6.872e-5
1.520, 6.872e-5
1.519, 6.871e-5
1.518, 6.871e-5
1.517, 6.871e-5
1.516, 6.871e-5
1.515, 6.870e-5
1.514, 6.870e-5
1.513, 6.870e-5
1.512, 6.870e-5
1.511, 6.870e-5
1.510, 6.870e-5
1.509, 6.870e-5
1.508, 6.870e-5
1.507, 6.871e-5
1.506, 6.871e-5
1.505, 6.871e-5
1.504, 6.872e-5
1.503, 6.872e-5
1.502, 6.872e-5
1.501, 6.873e-5
1.500, 6.873e-5
1.499, 6.874e-5
1.498, 6.875e-5
1.497, 6.876e-5
1.496, 6.877e-5
1.495, 6.877e-5
1.494, 6.879e-5
1.493, 6.880e-5
1.492, 6.881e-5
1.491, 6.882e-5
1.490, 6.883e-5
1.489, 6.884e-5
1.488, 6.886e-5
1.487, 6.887e-5
1.486, 6.889e-5
1.485, 6.890e-5
1.484, 6.892e-5
1.483, 6.894e-5
1.482, 6.895e-5
1.481, 6.898e-5
1.480, 6.900e-5
1.479, 6.902e-5
1.478, 6.904e-5
1.477, 6.906e-5
1.476, 6.909e-5
1.475, 6.911e-5
1.474, 6.913e-5
1.473, 6.916e-5
1.472, 6.918e-5
1.471, 6.921e-5
1.470, 6.924e-5
1.469, 6.926e-5
1.468, 6.930e-5
1.467, 6.932e-5
1.466, 6.936e-5
1.465, 6.939e-5
1.464, 6.942e-5
1.463, 6.946e-5
1.462, 6.949e-5
1.461, 6.952e-5
1.460, 6.956e-5
1.459, 6.960e-5
1.458, 6.964e-5
1.457, 6.967e-5
1.456, 6.971e-5
1.455, 6.975e-5
1.454, 6.979e-5
1.453, 6.983e-5
1.452, 6.987e-5
1.451, 6.992e-5
1.450, 6.996e-5
1.449, 7.000e-5
1.448, 7.004e-5
1.447, 7.008e-5
1.446, 7.013e-5
1.445, 7.018e-5
1.444, 7.022e-5
1.443, 7.026e-5
1.442, 7.031e-5
1.441, 7.036e-5
1.440, 7.040e-5
1.439, 7.045e-5
1.438, 7.049e-5
1.437, 7.054e-5
1.436, 7.059e-5
1.435, 7.063e-5
1.434, 7.068e-5
1.433, 7.073e-5
1.432, 7.077e-5
1.431, 7.082e-5
1.430, 7.086e-5
1.429, 7.091e-5
1.428, 7.096e-5
1.427, 7.101e-5
1.426, 7.105e-5
1.425, 7.109e-5
1.424, 7.114e-5
1.423, 7.119e-5
1.422, 7.123e-5
1.421, 7.128e-5
1.420, 7.132e-5
1.419, 7.136e-5
1.418, 7.141e-5
1.417, 7.145e-5
1.416, 7.150e-5
1.415, 7.154e-5
1.414, 7.158e-5
1.413, 7.162e-5
1.412, 7.166e-5
1.411, 7.170e-5
1.410, 7.174e-5
1.409, 7.178e-5
1.408, 7.182e-5
1.407, 7.186e-5
1.406, 7.189e-5
1.405, 7.193e-5
1.404, 7.197e-5
1.403, 7.201e-5
1.402, 7.204e-5
1.401, 7.207e-5
1.400, 7.210e-5
1.399, 7.214e-5
1.398, 7.217e-5
1.397, 7.220e-5
1.396, 7.223e-5
1.395, 7.226e-5
1.394, 7.229e-5
1.393, 7.231e-5
1.392, 7.234e-5
1.391, 7.237e-5
1.390, 7.239e-5
1.389, 7.241e-5
1.388, 7.244e-5
1.387, 7.246e-5
1.386, 7.248e-5
1.385, 7.250e-5
1.384, 7.252e-5
1.383, 7.254e-5
1.382, 7.256e-5
1.381, 7.258e-5
1.380, 7.260e-5
1.379, 7.261e-5
1.378, 7.263e-5
1.377, 7.264e-5
1.376, 7.265e-5
1.375, 7.267e-5
1.374, 7.268e-5
1.373, 7.269e-5
1.372, 7.270e-5
1.371, 7.271e-5
1.370, 7.272e-5
1.369, 7.272e-5
1.368, 7.273e-5
1.367, 7.274e-5
1.366, 7.274e-5
1.365, 7.274e-5
1.364, 7.274e-5
1.363, 7.275e-5
1.362, 7.275e-5
1.361, 7.275e-5
1.360, 7.275e-5
1.359, 7.275e-5
1.358, 7.274e-5
1.357, 7.274e-5
1.356, 7.274e-5
1.355, 7.273e-5
1.354, 7.272e-5
1.353, 7.272e-5
1.352, 7.271e-5
1.351, 7.271e-5
1.350, 7.269e-5
1.349, 7.269e-5
1.348, 7.268e-5
1.347, 7.267e-5
1.346, 7.266e-5
1.345, 7.264e-5
1.344, 7.263e-5
1.343, 7.262e-5
1.342, 7.260e-5
1.341, 7.259e-5
1.340, 7.257e-5
1.339, 7.255e-5
1.338, 7.254e-5
1.337, 7.252e-5
1.336, 7.250e-5
1.335, 7.248e-5
1.334, 7.247e-5
1.333, 7.245e-5
1.332, 7.243e-5
1.331, 7.241e-5
1.330, 7.239e-5
1.329, 7.237e-5
1.328, 7.235e-5
1.327, 7.233e-5
1.326, 7.230e-5
1.325, 7.228e-5
1.324, 7.226e-5
1.323, 7.224e-5
1.322, 7.221e-5
1.321, 7.219e-5
1.320, 7.216e-5
1.319, 7.214e-5
1.318, 7.211e-5
1.317, 7.208e-5
1.316, 7.206e-5
1.315, 7.203e-5
1.314, 7.201e-5
1.313, 7.198e-5
1.312, 7.195e-5
1.311, 7.193e-5
1.310, 7.190e-5
1.309, 7.187e-5
1.308, 7.184e-5
1.307, 7.181e-5
1.306, 7.179e-5
1.305, 7.176e-5
1.304, 7.173e-5
1.303, 7.170e-5
1.302, 7.167e-5
1.301, 7.164e-5
1.300, 7.161e-5
1.299, 7.158e-5
1.298, 7.155e-5
1.297, 7.152e-5
1.296, 7.149e-5
1.295, 7.146e-5
1.294, 7.143e-5
1.293, 7.140e-5
1.292, 7.137e-5
1.291, 7.133e-5
1.290, 7.130e-5
1.289, 7.127e-5
1.288, 7.124e-5
1.287, 7.121e-5
1.286, 7.118e-5
1.285, 7.115e-5
1.284, 7.111e-5
1.283, 7.108e-5
1.282, 7.105e-5
1.281, 7.102e-5
1.280, 7.099e-5
1.279, 7.096e-5
1.278, 7.092e-5
1.277, 7.089e-5
1.276, 7.086e-5
1.275, 7.082e-5
1.274, 7.079e-5
1.273, 7.076e-5
1.272, 7.072e-5
1.271, 7.069e-5
1.270, 7.066e-5
1.269, 7.063e-5
1.268, 7.059e-5
1.267, 7.056e-5
1.266, 7.053e-5
1.265, 7.049e-5
1.264, 7.046e-5
1.263, 7.043e-5
1.262, 7.039e-5
1.261, 7.036e-5
1.260, 7.032e-5
1.259, 7.029e-5
1.258, 7.026e-5
1.257, 7.023e-5
1.256, 7.019e-5
1.255, 7.016e-5
1.254, 7.013e-5
1.253, 7.010e-5
1.252, 7.006e-5
1.251, 7.003e-5
1.250, 6.999e-5
1.249, 6.996e-5
1.248, 6.993e-5
1.247, 6.990e-5
1.246, 6.987e-5
1.245, 6.983e-5
1.244, 6.980e-5
1.243, 6.977e-5
1.242, 6.974e-5
1.241, 6.970e-5
1.240, 6.967e-5
1.239, 6.964e-5
1.238, 6.961e-5
1.237, 6.958e-5
1.236, 6.955e-5
1.235, 6.952e-5
1.234, 6.949e-5
1.233, 6.945e-5
1.232, 6.942e-5
1.231, 6.939e-5
1.230, 6.936e-5
1.229, 6.932e-5
1.228, 6.930e-5
1.227, 6.927e-5
1.226, 6.924e-5
1.225, 6.921e-5
1.224, 6.918e-5
1.223, 6.915e-5
1.222, 6.912e-5
1.221, 6.909e-5
1.220, 6.906e-5
1.219, 6.903e-5
1.218, 6.901e-5
1.217, 6.898e-5
1.216, 6.895e-5
1.215, 6.892e-5
1.214, 6.889e-5
1.213, 6.887e-5
1.212, 6.884e-5
1.211, 6.881e-5
1.210, 6.879e-5
1.209, 6.876e-5
1.208, 6.874e-5
1.207, 6.871e-5
1.206, 6.869e-5
1.205, 6.866e-5
1.204, 6.864e-5
1.203, 6.861e-5
1.202, 6.859e-5
1.201, 6.857e-5
1.200, 6.855e-5
1.199, 6.852e-5
1.198, 6.850e-5
1.197, 6.848e-5
1.196, 6.846e-5
1.195, 6.844e-5
1.194, 6.842e-5
1.193, 6.840e-5
1.192, 6.838e-5
1.191, 6.836e-5
1.190, 6.834e-5
1.189, 6.832e-5
1.188, 6.831e-5
1.187, 6.829e-5
1.186, 6.827e-5
1.185, 6.826e-5
1.184, 6.824e-5
1.183, 6.823e-5
1.182, 6.821e-5
1.181, 6.820e-5
1.180, 6.819e-5
1.179, 6.817e-5
1.178, 6.816e-5
1.177, 6.815e-5
1.176, 6.814e-5
1.175, 6.813e-5
1.174, 6.812e-5
1.173, 6.811e-5
1.172, 6.810e-5
1.171, 6.810e-5
1.170, 6.810e-5
1.169, 6.809e-5
1.168, 6.808e-5
1.167, 6.808e-5
1.166, 6.807e-5
1.165, 6.807e-5
1.164, 6.807e-5
1.163, 6.807e-5
1.162, 6.807e-5
1.161, 6.806e-5
1.160, 6.806e-5
1.159, 6.806e-5
1.158, 6.806e-5
1.157, 6.806e-5
1.156, 6.807e-5
1.155, 6.807e-5
1.154, 6.807e-5
1.153, 6.807e-5
1.152, 6.807e-5
1.151, 6.808e-5
1.150, 6.808e-5
1.149, 6.809e-5
1.148, 6.809e-5
1.147, 6.810e-5
1.146, 6.811e-5
1.145, 6.811e-5
1.144, 6.812e-5
1.143, 6.812e-5
1.142, 6.813e-5
1.141, 6.814e-5
1.140, 6.814e-5
1.139, 6.815e-5
1.138, 6.815e-5
1.137, 6.816e-5
1.136, 6.816e-5
1.135, 6.817e-5
1.134, 6.817e-5
1.133, 6.818e-5
1.132, 6.818e-5
1.131, 6.819e-5
1.130, 6.820e-5
1.129, 6.820e-5
1.128, 6.821e-5
1.127, 6.821e-5
1.126, 6.821e-5
1.125, 6.821e-5
1.124, 6.821e-5
1.123, 6.822e-5
1.122, 6.822e-5
1.121, 6.822e-5
1.120, 6.822e-5
1.119, 6.821e-5
1.118, 6.821e-5
1.117, 6.821e-5
1.116, 6.820e-5
1.115, 6.820e-5
1.114, 6.819e-5
1.113, 6.818e-5
1.112, 6.818e-5
1.111, 6.817e-5
1.110, 6.815e-5
1.109, 6.814e-5
1.108, 6.813e-5
1.107, 6.811e-5
1.106, 6.809e-5
1.105, 6.807e-5
1.104, 6.805e-5
1.103, 6.803e-5
1.102, 6.801e-5
1.101, 6.798e-5
1.100, 6.795e-5
1.099, 6.792e-5
1.098, 6.789e-5
1.097, 6.785e-5
1.096, 6.782e-5
1.095, 6.778e-5
1.094, 6.773e-5
1.093, 6.769e-5
1.092, 6.764e-5
1.091, 6.759e-5
1.090, 6.753e-5
1.089, 6.747e-5
1.088, 6.742e-5
1.087, 6.735e-5
1.086, 6.728e-5
1.085, 6.721e-5
1.084, 6.713e-5
1.083, 6.705e-5
1.082, 6.697e-5
1.081, 6.687e-5
1.080, 6.678e-5
1.079, 6.668e-5
1.078, 6.658e-5
1.077, 6.647e-5
1.076, 6.635e-5
1.075, 6.623e-5
1.074, 6.611e-5
1.073, 6.598e-5
1.072, 6.585e-5
1.071, 6.572e-5
1.070, 6.558e-5
1.069, 6.542e-5
1.068, 6.525e-5
1.067, 6.510e-5
1.066, 6.492e-5
1.065, 6.474e-5
1.064, 6.456e-5
1.063, 6.437e-5
1.062, 6.417e-5
1.061, 6.397e-5
1.060, 6.376e-5
1.059, 6.354e-5
1.058, 6.331e-5
1.057, 6.307e-5
1.056, 6.282e-5
1.055, 6.257e-5
1.054, 6.232e-5
1.053, 6.204e-5
1.052, 6.176e-5
1.051, 6.149e-5
1.050, 6.118e-5
1.049, 6.087e-5
1.048, 6.057e-5
1.047, 6.024e-5
1.046, 5.990e-5
1.045, 5.957e-5
1.044, 5.921e-5
1.043, 5.886e-5
1.042, 5.849e-5
1.041, 5.810e-5
1.040, 5.772e-5
1.039, 5.732e-5
1.038, 5.691e-5
1.037, 5.650e-5
1.036, 5.606e-5
1.035, 5.564e-5
1.034, 5.518e-5
1.033, 5.472e-5
1.032, 5.427e-5
1.031, 5.378e-5
1.030, 5.329e-5
1.029, 5.279e-5
1.028, 5.227e-5
1.027, 5.178e-5
1.026, 5.124e-5
1.025, 5.070e-5
1.024, 5.012e-5
1.023, 4.956e-5
1.022, 4.900e-5
1.021, 4.842e-5
1.020, 4.783e-5
1.019, 4.725e-5
1.018, 4.663e-5
1.017, 4.601e-5
1.016, 4.539e-5
1.015, 4.475e-5
1.014, 4.410e-5
1.013, 4.346e-5
1.012, 4.278e-5
1.011, 4.211e-5
1.010, 4.142e-5
1.009, 4.073e-5
1.008, 4.004e-5
1.007, 3.934e-5
1.006, 3.864e-5
1.005, 3.791e-5
1.004, 3.717e-5
1.003, 3.646e-5
1.002, 3.571e-5
1.001, 3.496e-5
1.000, 3.423e-5
0.999, 3.346e-5
0.998, 3.270e-5
0.997, 3.194e-5
0.996, 3.116e-5
0.995, 3.039e-5
0.994, 2.961e-5
0.993, 2.882e-5
0.992, 2.804e-5
0.991, 2.724e-5
0.990, 2.647e-5
0.989, 2.566e-5
0.988, 2.485e-5
0.987, 2.409e-5
0.986, 2.328e-5
0.985, 2.247e-5
0.984, 2.169e-5
0.983, 2.087e-5
0.982, 2.009e-5
0.981, 1.930e-5
0.980, 1.850e-5
0.979, 1.772e-5
0.978, 1.693e-5
0.977, 1.616e-5
0.976, 1.539e-5
0.975, 1.461e-5
0.974, 1.385e-5
0.973, 1.306e-5
0.972, 1.229e-5
0.971, 1.156e-5
0.970, 1.081e-5
0.969, 1.007e-5
0.968, 9.356e-6
0.967, 8.622e-6
0.966, 7.902e-6
0.965, 7.204e-6
0.964, 6.513e-6
0.963, 5.841e-6
0.962, 5.159e-6
0.961, 4.512e-6
0.960, 3.860e-6
0.959, 3.222e-6
0.958, 2.626e-6
0.957, 2.009e-6
0.956, 1.411e-6
0.955, 8.543e-7
0.954, 2.820e-7
0.953, -2.726e-7
0.952, -7.787e-7
0.951, -1.324e-6
0.950, -1.819e-6
0.949, -2.304e-6
0.948, -2.788e-6
0.947, -3.248e-6
0.946, -3.695e-6
0.945, -4.122e-6
0.944, -4.529e-6
0.943, -4.945e-6
0.942, -5.305e-6
0.941, -5.687e-6
0.940, -6.029e-6
0.939, -6.335e-6
0.938, -6.650e-6
0.937, -6.949e-6
0.936, -7.198e-6
0.935, -7.467e-6
0.934, -7.701e-6
0.933, -7.920e-6
0.932, -8.124e-6
0.931, -8.295e-6
0.930, -8.463e-6
0.929, -8.616e-6
0.928, -8.737e-6
0.927, -8.846e-6
0.926, -8.929e-6
0.925, -9.009e-6
0.924, -9.074e-6
0.923, -9.083e-6
0.922, -9.141e-6
0.921, -9.165e-6
0.920, -9.129e-6
0.919, -9.102e-6
0.918, -9.054e-6
0.917, -8.977e-6
0.916, -8.911e-6
0.915, -8.811e-6
0.914, -8.697e-6
0.913, -8.580e-6
0.912, -8.435e-6
0.911, -8.293e-6
0.910, -8.108e-6
0.909, -7.937e-6
0.908, -7.753e-6
0.907, -7.530e-6
0.906, -7.321e-6
0.905, -7.099e-6
0.904, -6.850e-6
0.903, -6.605e-6
0.902, -6.343e-6
0.901, -6.067e-6
0.900, -5.791e-6
0.899, -5.499e-6
0.898, -5.205e-6
0.897, -4.893e-6
0.896, -4.595e-6
0.895, -4.281e-6
0.894, -3.944e-6
0.893, -3.618e-6
0.892, -3.286e-6
0.891, -2.938e-6
0.890, -2.606e-6
0.889, -2.269e-6
0.888, -1.912e-6
0.887, -1.563e-6
0.886, -1.210e-6
0.885, -8.333e-7
0.884, -4.856e-7
0.883, -1.265e-7
0.882, 2.313e-7
0.881, 5.831e-7
0.880, 9.433e-7
0.879, 1.293e-6
0.878, 1.652e-6
0.877, 2.009e-6
0.876, 2.354e-6
0.875, 2.712e-6
0.874, 3.053e-6
0.873, 3.392e-6
0.872, 3.744e-6
0.871, 4.067e-6
0.870, 4.405e-6
0.869, 4.738e-6
0.868, 5.057e-6
0.867, 5.386e-6
0.866, 5.704e-6
0.865, 6.021e-6
0.864, 6.330e-6
0.863, 6.635e-6
0.862, 6.940e-6
0.861, 7.235e-6
0.860, 7.523e-6
0.859, 7.813e-6
0.858, 8.088e-6
0.857, 8.363e-6
0.856, 8.633e-6
0.855, 8.888e-6
0.854, 9.144e-6
0.853, 9.400e-6
0.852, 9.643e-6
0.851, 9.881e-6
0.850, 1.012e-5
0.849, 1.034e-5
0.848, 1.056e-5
0.847, 1.078e-5
0.846, 1.099e-5
0.845, 1.119e-5
0.844, 1.138e-5
0.843, 1.158e-5
0.842, 1.176e-5
0.841, 1.194e-5
0.840, 1.212e-5
0.839, 1.228e-5
0.838, 1.243e-5
0.837, 1.259e-5
0.836, 1.273e-5
0.835, 1.287e-5
0.834, 1.300e-5
0.833, 1.312e-5
0.832, 1.325e-5
0.831, 1.335e-5
0.830, 1.346e-5
0.829, 1.355e-5
0.828, 1.364e-5
0.827, 1.373e-5
0.826, 1.380e-5
0.825, 1.387e-5
0.824, 1.393e-5
0.823, 1.398e-5
0.822, 1.403e-5
0.821, 1.407e-5
0.820, 1.409e-5
0.819, 1.409e-5
0.818, 1.411e-5
0.817, 1.412e-5
0.816, 1.412e-5
0.815, 1.411e-5
0.814, 1.409e-5
0.813, 1.406e-5
0.812, 1.402e-5
0.811, 1.398e-5
0.810, 1.392e-5
0.809, 1.385e-5
0.808, 1.379e-5
0.807, 1.370e-5
0.806, 1.360e-5
0.805, 1.350e-5
0.804, 1.338e-5
0.803, 1.326e-5
0.802, 1.313e-5
0.801, 1.298e-5
0.800, 1.283e-5
0.799, 1.267e-5
0.798, 1.249e-5
0.797, 1.231e-5
0.796, 1.210e-5
0.795, 1.191e-5
0.794, 1.168e-5
0.793, 1.144e-5
0.792, 1.121e-5
0.791, 1.095e-5
0.790, 1.069e-5
0.789, 1.042e-5
0.788, 1.012e-5
0.787, 9.826e-6
0.786, 9.513e-6
0.785, 9.190e-6
0.784, 8.863e-6
0.783, 8.509e-6
0.782, 8.160e-6
0.781, 7.785e-6
0.780, 7.391e-6
0.779, 7.013e-6
0.778, 6.590e-6
0.777, 6.170e-6
0.776, 5.749e-6
0.775, 5.291e-6
0.774, 4.839e-6
0.773, 4.373e-6
0.772, 3.889e-6
0.771, 3.403e-6
0.770, 2.902e-6
0.769, 2.391e-6
0.768, 1.839e-6
0.767, 1.303e-6
0.766, 7.570e-7
0.765, 1.974e-7
0.764, -3.765e-7
0.763, -9.460e-7
0.762, -1.565e-6
0.761, -2.184e-6
0.760, -2.788e-6
0.759, -3.417e-6
0.758, -4.055e-6
0.757, -4.685e-6
0.756, -5.366e-6
0.755, -6.027e-6
0.754, -6.714e-6
0.753, -7.407e-6
0.752, -8.103e-6
0.751, -8.817e-6
0.750, -9.529e-6
0.749, -1.026e-5
0.748, -1.100e-5
0.747, -1.173e-5
0.746, -1.249e-5
0.745, -1.326e-5
0.744, -1.400e-5
0.743, -1.480e-5
0.742, -1.558e-5
0.741, -1.636e-5
0.740, -1.717e-5
0.739, -1.795e-5
0.738, -1.874e-5
0.737, -1.952e-5
0.736, -2.033e-5
0.735, -2.114e-5
0.734, -2.191e-5
0.733, -2.271e-5
0.732, -2.351e-5
0.731, -2.427e-5
0.730, -2.507e-5
0.729, -2.584e-5
0.728, -2.658e-5
0.727, -2.734e-5
0.726, -2.809e-5
0.725, -2.885e-5
0.724, -2.960e-5
0.723, -3.035e-5
0.722, -3.109e-5
0.721, -3.182e-5
0.720, -3.252e-5
0.719, -3.323e-5
0.718, -3.390e-5
0.717, -3.461e-5
0.716, -3.530e-5
0.715, -3.595e-5
0.714, -3.663e-5
0.713, -3.731e-5
0.712, -3.795e-5
0.711, -3.861e-5
0.710, -3.926e-5
0.709, -3.989e-5
0.708, -4.051e-5
0.707, -4.109e-5
0.706, -4.170e-5
0.705, -4.232e-5
0.704, -4.294e-5
0.703, -4.357e-5
0.702, -4.414e-5
0.701, -4.469e-5
0.700, -4.521e-5
0.699, -4.567e-5
0.698, -4.615e-5
0.697, -4.661e-5
0.696, -4.703e-5
0.695, -4.745e-5
0.694, -4.781e-5
0.693, -4.816e-5
0.692, -4.849e-5
0.691, -4.882e-5
0.690, -4.912e-5
0.689, -4.941e-5
0.688, -4.970e-5
0.687, -4.996e-5
0.686, -5.019e-5
0.685, -5.044e-5
0.684, -5.065e-5
0.683, -5.083e-5
0.682, -5.101e-5
0.681, -5.118e-5
0.680, -5.131e-5
0.679, -5.145e-5
0.678, -5.156e-5
0.677, -5.164e-5
0.676, -5.171e-5
0.675, -5.178e-5
0.674, -5.182e-5
0.673, -5.184e-5
0.672, -5.184e-5
0.671, -5.184e-5
0.670, -5.180e-5
0.669, -5.175e-5
0.668, -5.171e-5
0.667, -5.161e-5
0.666, -5.154e-5
0.665, -5.145e-5
0.664, -5.131e-5
0.663, -5.118e-5
0.662, -5.103e-5
0.661, -5.086e-5
0.660, -5.070e-5
0.659, -5.051e-5
0.658, -5.031e-5
0.657, -5.009e-5
0.656, -4.986e-5
0.655, -4.963e-5
0.654, -4.936e-5
0.653, -4.911e-5
0.652, -4.885e-5
0.651, -4.855e-5
0.650, -4.826e-5
0.649, -4.796e-5
0.648, -4.764e-5
0.647, -4.732e-5
0.646, -4.699e-5
0.645, -4.665e-5
0.644, -4.631e-5
0.643, -4.596e-5
0.642, -4.560e-5
0.641, -4.524e-5
0.640, -4.487e-5
0.639, -4.449e-5
0.638, -4.412e-5
0.637, -4.373e-5
0.636, -4.335e-5
0.635, -4.294e-5
0.634, -4.255e-5
0.633, -4.216e-5
0.632, -4.175e-5
0.631, -4.135e-5
0.630, -4.095e-5
0.629, -4.053e-5
0.628, -4.013e-5
0.627, -3.972e-5
0.626, -3.932e-5
0.625, -3.891e-5
0.624, -3.851e-5
0.623, -3.811e-5
0.622, -3.771e-5
0.621, -3.731e-5
0.620, -3.692e-5
0.619, -3.651e-5
0.618, -3.612e-5
0.617, -3.574e-5
0.616, -3.535e-5
0.615, -3.498e-5
0.614, -3.460e-5
0.613, -3.423e-5
0.612, -3.386e-5
0.611, -3.349e-5
0.610, -3.313e-5
0.609, -3.277e-5
0.608, -3.241e-5
0.607, -3.206e-5
0.606, -3.172e-5
0.605, -3.137e-5
0.604, -3.104e-5
0.603, -3.071e-5
0.602, -3.039e-5
0.601, -3.007e-5
0.600, -2.975e-5
0.599, -2.944e-5
0.598, -2.913e-5
0.597, -2.882e-5
0.596, -2.853e-5
0.595, -2.824e-5
0.594, -2.795e-5
0.593, -2.767e-5
0.592, -2.739e-5
0.591, -2.711e-5
0.590, -2.684e-5
0.589, -2.657e-5
0.588, -2.631e-5
0.587, -2.605e-5
0.586, -2.579e-5
0.585, -2.554e-5
0.584, -2.529e-5
0.583, -2.505e-5
0.582, -2.481e-5
0.581, -2.457e-5
0.580, -2.433e-5
0.579, -2.410e-5
0.578, -2.388e-5
0.577, -2.365e-5
0.576, -2.343e-5
0.575, -2.322e-5
0.574, -2.300e-5
0.573, -2.280e-5
0.572, -2.259e-5
0.571, -2.239e-5
0.570, -2.219e-5
0.569, -2.200e-5
0.568, -2.180e-5
0.567, -2.161e-5
0.566, -2.142e-5
0.565, -2.124e-5
0.564, -2.105e-5
0.563, -2.088e-5
0.562, -2.069e-5
0.561, -2.052e-5
0.560, -2.034e-5
0.559, -2.017e-5
0.558, -2.001e-5
0.557, -1.984e-5
0.556, -1.968e-5
0.555, -1.952e-5
0.554, -1.936e-5
0.553, -1.921e-5
0.552, -1.905e-5
0.551, -1.890e-5
0.550, -1.875e-5
0.549, -1.861e-5
0.548, -1.847e-5
0.547, -1.832e-5
0.546, -1.818e-5
0.545, -1.804e-5
0.544, -1.790e-5
0.543, -1.777e-5
0.542, -1.764e-5
0.541, -1.750e-5
0.540, -1.737e-5
0.539, -1.724e-5
0.538, -1.712e-5
0.537, -1.699e-5
0.536, -1.687e-5
0.535, -1.674e-5
0.534, -1.662e-5
0.533, -1.651e-5
0.532, -1.639e-5
0.531, -1.627e-5
0.530, -1.616e-5
0.529, -1.604e-5
0.528, -1.593e-5
0.527, -1.582e-5
0.526, -1.571e-5
0.525, -1.561e-5
0.524, -1.550e-5
0.523, -1.539e-5
0.522, -1.529e-5
0.521, -1.519e-5
0.520, -1.509e-5
0.519, -1.498e-5
0.518, -1.489e-5
0.517, -1.479e-5
0.516, -1.469e-5
0.515, -1.460e-5
0.514, -1.450e-5
0.513, -1.441e-5
0.512, -1.432e-5
0.511, -1.422e-5
0.510, -1.413e-5
0.509, -1.404e-5
0.508, -1.395e-5
0.507, -1.386e-5
0.506, -1.377e-5
0.505, -1.368e-5
0.504, -1.360e-5
0.503, -1.351e-5
0.502, -1.343e-5
0.501, -1.334e-5
0.500, -1.326e-5
0.499, -1.317e-5
0.498, -1.309e-5
0.497, -1.301e-5
0.496, -1.293e-5
0.495, -1.285e-5
0.494, -1.277e-5
0.493, -1.269e-5
0.492, -1.261e-5
0.491, -1.253e-5
0.490, -1.246e-5
0.489, -1.238e-5
0.488, -1.230e-5
0.487, -1.223e-5
0.486, -1.215e-5
0.485, -1.208e-5
0.484, -1.200e-5
0.483, -1.193e-5
0.482, -1.186e-5
0.481, -1.179e-5
0.480, -1.172e-5
0.479, -1.164e-5
0.478, -1.157e-5
0.477, -1.150e-5
0.476, -1.143e-5
0.475, -1.136e-5
0.474, -1.129e-5
0.473, -1.123e-5
0.472, -1.116e-5
0.471, -1.109e-5
0.470, -1.102e-5
0.469, -1.095e-5
0.468, -1.089e-5
0.467, -1.082e-5
0.466, -1.076e-5
0.465, -1.070e-5
0.464, -1.063e-5
0.463, -1.057e-5
0.462, -1.051e-5
0.461, -1.045e-5
0.460, -1.038e-5
0.459, -1.032e-5
0.458, -1.026e-5
0.457, -1.020e-5
0.456, -1.014e-5
0.455, -1.008e-5
0.454, -1.002e-5
0.453, -9.961e-6
0.452, -9.903e-6
0.451, -9.843e-6
0.450, -9.788e-6
0.449, -9.731e-6
0.448, -9.674e-6
0.447, -9.618e-6
0.446, -9.562e-6
0.445, -9.508e-6
0.444, -9.453e-6
0.443, -9.397e-6
0.442, -9.345e-6
0.441, -9.292e-6
0.440, -9.238e-6
0.439, -9.183e-6
0.438, -9.131e-6
0.437, -9.078e-6
0.436, -9.027e-6
0.435, -8.975e-6
0.434, -8.924e-6
0.433, -8.874e-6
0.432, -8.823e-6
0.431, -8.773e-6
0.430, -8.726e-6
0.429, -8.676e-6
0.428, -8.628e-6
0.427, -8.579e-6
0.426, -8.533e-6
0.425, -8.487e-6
0.424, -8.438e-6
0.423, -8.391e-6
0.422, -8.345e-6
0.421, -8.299e-6
0.420, -8.257e-6
0.419, -8.212e-6
0.418, -8.166e-6
0.417, -8.123e-6
0.416, -8.079e-6
0.415, -8.035e-6
0.414, -7.992e-6
0.413, -7.949e-6
0.412, -7.907e-6
0.411, -7.864e-6
0.410, -7.824e-6
0.409, -7.782e-6
0.408, -7.739e-6
0.407, -7.698e-6
0.406, -7.659e-6
0.405, -7.619e-6
0.404, -7.579e-6
0.403, -7.539e-6
0.402, -7.499e-6
0.401, -7.461e-6
0.400, -7.421e-6
0.399, -7.383e-6
0.398, -7.346e-6
0.397, -7.307e-6
0.396, -7.270e-6
0.395, -7.232e-6
0.394, -7.195e-6
0.393, -7.157e-6
0.392, -7.121e-6
0.391, -7.088e-6
0.390, -7.053e-6
0.389, -7.016e-6
0.388, -6.981e-6
0.387, -6.947e-6
0.386, -6.913e-6
0.385, -6.880e-6
0.384, -6.847e-6
0.383, -6.811e-6
0.382, -6.778e-6
0.381, -6.744e-6
0.380, -6.711e-6
0.379, -6.678e-6
0.378, -6.646e-6
0.377, -6.614e-6
0.376, -6.580e-6
0.375, -6.547e-6
0.374, -6.515e-6
0.373, -6.481e-6
0.372, -6.451e-6
0.371, -6.420e-6
0.370, -6.390e-6
0.369, -6.361e-6
0.368, -6.329e-6
0.367, -6.298e-6
0.366, -6.268e-6
0.365, -6.238e-6
0.364, -6.208e-6
0.363, -6.178e-6
0.362, -6.149e-6
0.361, -6.121e-6
0.360, -6.091e-6
0.359, -6.064e-6
0.358, -6.034e-6
0.357, -6.005e-6
0.356, -5.977e-6
0.355, -5.949e-6
0.354, -5.920e-6
0.353, -5.892e-6
0.352, -5.866e-6
0.351, -5.840e-6
0.350, -5.814e-6
0.349, -5.789e-6
0.348, -5.762e-6
0.347, -5.736e-6
0.346, -5.709e-6
0.345, -5.683e-6
0.344, -5.656e-6
0.343, -5.629e-6
0.342, -5.605e-6
0.341, -5.579e-6
0.340, -5.554e-6
0.339, -5.530e-6
0.338, -5.504e-6
0.337, -5.481e-6
0.336, -5.454e-6
0.335, -5.429e-6
0.334, -5.406e-6
0.333, -5.383e-6
0.332, -5.359e-6
0.331, -5.334e-6
0.330, -5.310e-6
0.329, -5.286e-6
0.328, -5.261e-6
0.327, -5.238e-6
0.326, -5.214e-6
0.325, -5.191e-6
0.324, -5.168e-6
0.323, -5.144e-6
0.322, -5.124e-6
0.321, -5.101e-6
0.320, -5.078e-6
0.319, -5.056e-6
0.318, -5.032e-6
0.317, -5.011e-6
0.316, -4.988e-6
0.315, -4.966e-6
0.314, -4.945e-6
0.313, -4.922e-6
0.312, -4.900e-6
0.311, -4.879e-6
0.310, -4.859e-6
0.309, -4.838e-6
0.308, -4.817e-6
0.307, -4.798e-6
0.306, -4.776e-6
0.305, -4.756e-6
0.304, -4.735e-6
0.303, -4.713e-6
0.302, -4.694e-6
0.301, -4.674e-6
0.300, -4.654e-6
0.299, -4.634e-6
0.298, -4.614e-6
0.297, -4.596e-6
0.296, -4.577e-6
0.295, -4.560e-6
0.294, -4.541e-6
0.293, -4.522e-6
0.292, -4.504e-6
0.291, -4.484e-6
0.290, -4.465e-6
0.289, -4.447e-6
0.288, -4.428e-6
0.287, -4.410e-6
0.286, -4.391e-6
0.285, -4.374e-6
0.284, -4.356e-6
0.283, -4.336e-6
0.282, -4.321e-6
0.281, -4.302e-6
0.280, -4.284e-6
0.279, -4.266e-6
0.278, -4.247e-6
0.277, -4.230e-6
0.276, -4.213e-6
0.275, -4.194e-6
0.274, -4.178e-6
0.273, -4.161e-6
0.272, -4.145e-6
0.271, -4.127e-6
0.270, -4.110e-6
0.269, -4.095e-6
0.268, -4.078e-6
0.267, -4.060e-6
0.266, -4.043e-6
0.265, -4.027e-6
0.264, -4.011e-6
0.263, -3.995e-6
0.262, -3.981e-6
0.261, -3.964e-6
0.260, -3.949e-6
0.259, -3.933e-6
0.258, -3.917e-6
0.257, -3.901e-6
0.256, -3.885e-6
0.255, -3.870e-6
0.254, -3.854e-6
0.253, -3.838e-6
0.252, -3.824e-6
0.251, -3.807e-6
0.250, -3.793e-6
0.249, -3.777e-6
0.248, -3.761e-6
0.247, -3.746e-6
0.246, -3.732e-6
0.245, -3.717e-6
0.244, -3.703e-6
0.243, -3.689e-6
0.242, -3.676e-6
0.241, -3.661e-6
0.240, -3.646e-6
0.239, -3.631e-6
0.238, -3.618e-6
0.237, -3.603e-6
0.236, -3.588e-6
0.235, -3.574e-6
0.234, -3.560e-6
0.233, -3.547e-6
0.232, -3.532e-6
0.231, -3.518e-6
0.230, -3.504e-6
0.229, -3.490e-6
0.228, -3.477e-6
0.227, -3.464e-6
0.226, -3.451e-6
0.225, -3.438e-6
0.224, -3.425e-6
0.223, -3.412e-6
0.222, -3.399e-6
0.221, -3.386e-6
0.220, -3.372e-6
0.219, -3.360e-6
0.218, -3.347e-6
0.217, -3.334e-6
0.216, -3.320e-6
0.215, -3.308e-6
0.214, -3.295e-6
0.213, -3.282e-6
0.212, -3.269e-6
0.211, -3.256e-6
0.210, -3.243e-6
0.209, -3.231e-6
0.208, -3.218e-6
0.207, -3.205e-6
0.206, -3.193e-6
0.205, -3.182e-6
0.204, -3.170e-6
0.203, -3.157e-6
0.202, -3.144e-6
0.201, -3.134e-6
0.200, -3.122e-6
0.199, -3.111e-6
0.198, -3.099e-6
0.197, -3.087e-6
0.196, -3.075e-6
0.195, -3.063e-6
0.194, -3.051e-6
0.193, -3.041e-6
0.192, -3.029e-6
0.191, -3.016e-6
0.190, -3.005e-6
0.189, -2.994e-6
0.188, -2.984e-6
0.187, -2.974e-6
0.186, -2.963e-6
0.185, -2.951e-6
0.184, -2.941e-6
0.183, -2.930e-6
0.182, -2.919e-6
0.181, -2.908e-6
0.180, -2.897e-6
0.179, -2.887e-6
0.178, -2.876e-6
0.177, -2.865e-6
0.176, -2.854e-6
0.175, -2.842e-6
0.174, -2.832e-6
0.173, -2.821e-6
0.172, -2.810e-6
0.171, -2.799e-6
0.170, -2.787e-6
0.169, -2.778e-6
0.168, -2.768e-6
0.167, -2.756e-6
0.166, -2.747e-6
0.165, -2.736e-6
0.164, -2.726e-6
0.163, -2.717e-6
0.162, -2.707e-6
0.161, -2.697e-6
0.160, -2.686e-6
0.159, -2.676e-6
0.158, -2.666e-6
0.157, -2.656e-6
0.156, -2.647e-6
0.155, -2.636e-6
0.154, -2.626e-6
0.153, -2.616e-6
0.152, -2.605e-6
0.151, -2.597e-6
0.150, -2.586e-6
0.149, -2.576e-6
0.148, -2.566e-6
0.147, -2.557e-6
0.146, -2.547e-6
0.145, -2.536e-6
0.144, -2.527e-6
0.143, -2.517e-6
0.142, -2.508e-6
0.141, -2.499e-6
0.140, -2.489e-6
0.139, -2.480e-6
0.138, -2.471e-6
0.137, -2.461e-6
0.136, -2.452e-6
0.135, -2.443e-6
0.134, -2.434e-6
0.133, -2.425e-6
0.132, -2.415e-6
0.131, -2.407e-6
0.130, -2.396e-6
0.129, -2.388e-6
0.128, -2.378e-6
0.127, -2.370e-6
0.126, -2.360e-6
0.125, -2.350e-6
0.124, -2.342e-6
0.123, -2.333e-6
0.122, -2.324e-6
0.121, -2.316e-6
0.120, -2.305e-6
0.119, -2.298e-6
0.118, -2.289e-6
0.117, -2.280e-6
0.116, -2.271e-6
0.115, -2.262e-6
0.114, -2.254e-6
0.113, -2.245e-6
0.112, -2.236e-6
0.111, -2.229e-6
0.110, -2.219e-6
0.109, -2.211e-6
0.108, -2.203e-6
0.107, -2.195e-6
0.106, -2.187e-6
0.105, -2.178e-6
0.104, -2.170e-6
0.103, -2.163e-6
0.102, -2.154e-6
0.101, -2.146e-6
0.100, -2.137e-6
0.099, -2.129e-6
0.098, -2.121e-6
0.097, -2.113e-6
0.096, -2.105e-6
0.095, -2.096e-6
0.094, -2.089e-6
0.093, -2.081e-6
0.092, -2.073e-6
0.091, -2.065e-6
0.090, -2.056e-6
0.089, -2.048e-6
0.088, -2.040e-6
0.087, -2.032e-6
0.086, -2.025e-6
0.085, -2.017e-6
0.084, -2.009e-6
0.083, -2.001e-6
0.082, -1.992e-6
0.081, -1.986e-6
0.080, -1.978e-6
0.079, -1.970e-6
0.078, -1.962e-6
0.077, -1.955e-6
0.076, -1.947e-6
0.075, -1.939e-6
0.074, -1.932e-6
0.073, -1.925e-6
0.072, -1.916e-6
0.071, -1.909e-6
0.070, -1.902e-6
0.069, -1.895e-6
0.068, -1.888e-6
0.067, -1.880e-6
0.066, -1.874e-6
0.065, -1.866e-6
0.064, -1.859e-6
0.063, -1.852e-6
0.062, -1.845e-6
0.061, -1.837e-6
0.060, -1.831e-6
0.059, -1.824e-6
0.058, -1.816e-6
0.057, -1.810e-6
0.056, -1.802e-6
0.055, -1.794e-6
0.054, -1.787e-6
0.053, -1.780e-6
0.052, -1.773e-6
0.051, -1.767e-6
0.050, -1.759e-6
0.049, -1.752e-6
0.048, -1.745e-6
0.047, -1.738e-6
0.046, -1.731e-6
0.045, -1.724e-6
0.044, -1.718e-6
0.043, -1.712e-6
0.042, -1.704e-6
0.041, -1.698e-6
0.040, -1.691e-6
0.039, -1.684e-6
0.038, -1.679e-6
0.037, -1.670e-6
0.036, -1.665e-6
0.035, -1.658e-6
0.034, -1.651e-6
0.033, -1.645e-6
0.032, -1.637e-6
0.031, -1.631e-6
0.030, -1.624e-6
0.029, -1.617e-6
0.028, -1.611e-6
0.027, -1.604e-6
0.026, -1.599e-6
0.025, -1.593e-6
0.024, -1.586e-6
0.023, -1.580e-6
0.022, -1.574e-6
0.021, -1.568e-6
0.020, -1.561e-6
0.019, -1.555e-6
0.018, -1.550e-6
0.017, -1.543e-6
0.016, -1.538e-6
0.015, -1.530e-6
0.014, -1.525e-6
0.013, -1.519e-6
0.012, -1.512e-6
0.011, -1.506e-6
0.010, -1.500e-6
0.009, -1.494e-6
0.008, -1.488e-6
0.007, -1.483e-6
0.006, -1.477e-6
0.005, -1.472e-6
0.004, -1.465e-6
0.003, -1.460e-6
0.002, -1.454e-6
0.001, -1.448e-6
