Integration Time [msec],34
Number of Averages,51
Wavelength,A.U.
Timestamp,0
413,0
411,0
410,0
408,0
407,0
406,0
404,0
403,0
402,0
401,0
399,0
398,0
397,0
395,0
394,0
393,0
392,0
390,0
389,0
388,0
387,0
386,0
384,0
383,0
382,0
381,0
380,0
379,0
377,0
376,0
375,0
374,0
373,0
372,0
371,0
369,0
368,0
367,0
366,0
365,0
364,0
363,0
362,0
361,0
360,0
359,0
358,0
357,0
356,0
355,0
354,0
353,0
352,0
351,0
350,0
349,0
348,0
347,0
346,0
345,0
344,0
343,0.00E+00
342,2.48E-307
341,1.06E-305
340,4.51E-304
339,1.89E-302
338,7.87E-301
337,3.24E-299
336,1.32E-297
335,5.32E-296
335,2.12E-294
334,8.40E-293
333,3.29E-291
332,1.27E-289
331,4.89E-288
330,1.86E-286
329,6.98E-285
328,2.60E-283
327,9.57E-282
327,3.49E-280
326,1.26E-278
325,4.51E-277
324,1.60E-275
323,5.60E-274
322,1.94E-272
322,6.68E-271
321,2.27E-269
320,7.65E-268
319,2.55E-266
318,8.41E-265
317,2.75E-263
317,8.90E-262
316,2.85E-260
315,9.03E-259
314,2.84E-257
313,8.81E-256
313,2.71E-254
312,8.26E-253
311,2.49E-251
310,7.44E-250
309,2.20E-248
309,6.43E-247
308,1.86E-245
307,5.35E-244
306,1.52E-242
306,4.27E-241
305,1.19E-239
304,3.27E-238
303,8.93E-237
303,2.41E-235
302,6.45E-234
301,1.71E-232
300,4.48E-231
300,1.16E-229
299,2.98E-228
298,7.59E-227
298,1.91E-225
297,4.76E-224
296,1.18E-222
295,2.87E-221
295,6.95E-220
294,1.66E-218
293,3.94E-217
293,9.26E-216
292,2.15E-214
291,4.95E-213
291,1.13E-211
290,2.54E-210
289,5.67E-209
289,1.25E-207
288,2.74E-206
287,5.95E-205
287,1.28E-203
286,2.71E-202
285,5.69E-201
285,1.18E-199
284,2.44E-198
283,4.98E-197
283,1.01E-195
282,2.01E-194
281,3.98E-193
281,7.80E-192
280,1.51E-190
279,2.91E-189
279,5.53E-188
278,1.04E-186
278,1.94E-185
277,3.58E-184
276,6.54E-183
276,1.18E-181
275,2.12E-180
274,3.75E-179
274,6.59E-178
273,1.14E-176
273,1.97E-175
272,3.35E-174
271,5.65E-173
271,9.44E-172
270,1.56E-170
270,2.55E-169
269,4.13E-168
269,6.63E-167
268,1.05E-165
267,1.65E-164
267,2.57E-163
266,3.97E-162
266,6.05E-161
265,9.13E-160
265,1.37E-158
264,2.02E-157
263,2.96E-156
263,4.30E-155
262,6.17E-154
262,8.77E-153
261,1.23E-151
261,1.72E-150
260,2.37E-149
260,3.24E-148
259,4.39E-147
258,5.87E-146
258,7.78E-145
257,1.02E-143
257,1.33E-142
256,1.71E-141
256,2.17E-140
255,2.74E-139
255,3.42E-138
254,4.23E-137
254,5.17E-136
253,6.26E-135
253,7.51E-134
252,8.91E-133
252,1.05E-131
251,1.22E-130
251,1.40E-129
250,1.60E-128
250,1.81E-127
249,2.02E-126
249,2.24E-125
248,2.45E-124
248,2.66E-123
247,2.85E-122
247,3.03E-121
246,3.19E-120
246,3.33E-119
245,3.43E-118
245,3.51E-117
244,3.55E-116
244,3.55E-115
243,3.52E-114
243,3.45E-113
242,3.35E-112
242,3.23E-111
241,3.07E-110
241,2.90E-109
240,2.70E-108
240,2.50E-107
239,2.28E-106
239,2.07E-105
239,1.85E-104
238,1.65E-103
238,1.45E-102
237,1.26E-101
237,1.08E-100
236,9.24E-100
236,7.80E-99
235,6.52E-98
235,5.40E-97
234,4.42E-96
234,3.59E-95
234,2.88E-94
233,2.29E-93
233,1.80E-92
232,1.40E-91
232,1.08E-90
231,8.27E-90
231,6.25E-89
231,4.68E-88
230,3.47E-87
230,2.54E-86
229,1.85E-85
229,1.33E-84
228,9.46E-84
228,6.67E-83
228,4.65E-82
227,3.21E-81
227,2.20E-80
226,1.49E-79
226,9.98E-79
225,6.62E-78
225,4.35E-77
225,2.83E-76
224,1.82E-75
224,1.16E-74
223,7.34E-74
223,4.59E-73
223,2.84E-72
222,1.74E-71
222,1.05E-70
221,6.33E-70
221,3.76E-69
221,2.21E-68
220,1.29E-67
220,7.44E-67
220,4.25E-66
219,2.40E-65
219,1.34E-64
218,7.45E-64
218,4.09E-63
218,2.22E-62
217,1.19E-61
217,6.35E-61
216,3.35E-60
216,1.75E-59
216,9.02E-59
215,4.61E-58
215,2.34E-57
215,1.17E-56
214,5.81E-56
214,2.85E-55
213,1.39E-54
213,6.69E-54
213,3.19E-53
212,1.50E-52
212,7.03E-52
212,3.25E-51
211,1.49E-50
211,6.76E-50
211,3.03E-49
210,1.35E-48
210,5.93E-48
209,2.58E-47
209,1.11E-46
209,4.76E-46
208,2.01E-45
208,8.42E-45
208,3.49E-44
207,1.43E-43
207,5.81E-43
207,2.34E-42
206,9.29E-42
206,3.66E-41
206,1.43E-40
205,5.52E-40
205,2.11E-39
205,7.99E-39
204,2.99E-38
204,1.11E-37
204,4.08E-37
203,1.48E-36
203,5.35E-36
203,1.91E-35
202,6.72E-35
202,2.35E-34
202,8.13E-34
201,2.78E-33
201,9.44E-33
201,3.17E-32
200,1.05E-31
200,3.46E-31
200,1.13E-30
199,3.64E-30
199,1.16E-29
199,3.67E-29
198,1.15E-28
198,3.56E-28
198,1.09E-27
197,3.31E-27
197,9.96E-27
197,2.96E-26
197,8.73E-26
196,2.55E-25
196,7.36E-25
196,2.10E-24
195,5.96E-24
195,1.67E-23
195,4.63E-23
194,1.27E-22
194,3.46E-22
194,9.31E-22
193,2.48E-21
193,6.55E-21
193,1.71E-20
193,4.43E-20
192,1.13E-19
192,2.87E-19
192,7.21E-19
191,1.79E-18
191,4.41E-18
191,1.07E-17
190,2.59E-17
190,6.18E-17
190,1.46E-16
190,3.42E-16
189,7.91E-16
189,1.81E-15
189,4.12E-15
188,9.26E-15
188,2.06E-14
188,4.54E-14
188,9.90E-14
187,2.14E-13
187,4.57E-13
187,9.68E-13
186,2.03E-12
186,4.21E-12
186,8.64E-12
186,1.76E-11
185,3.54E-11
185,7.05E-11
185,1.39E-10
185,2.72E-10
184,5.25E-10
184,1.01E-09
184,1.91E-09
183,3.58E-09
183,6.65E-09
183,1.22E-08
183,2.23E-08
182,4.01E-08
182,7.17E-08
182,1.27E-07
182,2.22E-07
181,3.84E-07
181,6.58E-07
181,1.12E-06
180,1.88E-06
180,3.12E-06
180,5.14E-06
180,8.39E-06
179,1.35E-05
179,2.17E-05
179,3.43E-05
179,5.37E-05
178,8.33E-05
178,0.000127908
178,0.000194467
178,0.000292712
177,0.000436194
177,0.000643525
177,0.000939934
177,0.001359175
176,0.001945805
176,0.002757844
176,0.003869777
176,0.005375866
175,0.007393618
175,0.01006727
175,0.013571022
175,0.018111712
174,0.023930544
174,0.031303419
174,0.04053938
174,0.051976681
173,0.06597602
173,0.082910551
173,0.103152466
173,0.127056108
172,0.154937879
172,0.187053477
172,0.223573378
172,0.264557766
171,0.309932459
171,0.359467584
171,0.412760876
171,0.469227484
171,0.528097948
170,0.588425712
170,0.649104956
170,0.708898948
170,0.766478294
169,0.820467745
169,0.8694994
169,0.91226956
169,0.947595967
168,0.974471958
168,0.992114076
168,1
168,0.997894231
168,0.985859777
167,0.96425502
167,0.933715989
167,0.895125259
167,0.849569597
166,0.7982892
166,0.742621809
166,0.683945223
166,0.623621609
166,0.562946685
165,0.503106303
165,0.445142245
165,0.389928277
165,0.338156725
164,0.290335123
164,0.246791869
164,0.207689401
164,0.173043089
164,0.142743966
163,0.116583454
163,0.094278394
163,0.075494983
163,0.059870526
162,0.047032244
162,0.036612725
162,0.028261882
162,0.021655521
162,0.016500833
161,0.012539198
161,0.009546802
161,0.007333542
161,0.005740716
161,0.004637904
160,0.003919419
160,0.003500614
160,0.003314278
160,0.003307274
160,0.003437528
159,0.003671428
159,0.003981659
159,0.004345464
159,0.004743314
159,0.005157952
158,0.005573757
158,0.005976389
158,0.006352654
158,0.006690544
158,0.006979389
157,0.007210078
157,0.007375303
157,0.007469783
157,0.007490437
157,0.007436475
156,0.007309402
156,0.00711292
156,0.006852721
156,0.006536212
156,0.006172149
155,0.005770234
155,0.005340684
155,0.004893806
155,0.004439589
155,0.003987356
154,0.003545467
154,0.003121103
154,0.002720124
154,0.002347014
154,0.002004881
153,0.001695538
153,0.001419622
153,0.00117675
153,0.000965699
153,0.000784594
152,0.000631095
152,0.000502563
152,0.000396217
152,0.000309258
152,0.000238976
152,0.000182825
151,0.000138472
151,0.000103833
151,7.71E-05
151,5.67E-05
151,4.12E-05
150,2.97E-05
150,2.12E-05
150,1.50E-05
150,1.05E-05
150,7.23E-06
150,4.96E-06
149,3.36E-06
149,2.26E-06
149,1.50E-06
149,9.88E-07
149,6.44E-07
148,4.15E-07
148,2.65E-07
148,1.68E-07
148,1.05E-07
148,6.51E-08
148,3.99E-08
147,2.43E-08
147,1.46E-08
147,8.69E-09
147,5.12E-09
147,2.99E-09
147,1.73E-09
146,9.88E-10
146,5.60E-10
146,3.14E-10
146,1.74E-10
146,9.57E-11
145,5.21E-11
145,2.80E-11
145,1.50E-11
145,7.90E-12
145,4.13E-12
145,2.14E-12
144,1.09E-12
144,5.55E-13
144,2.79E-13
144,1.39E-13
144,6.82E-14
144,3.32E-14
143,1.61E-14
143,7.73E-15
143,3.79E-15
143,2.08E-15
143,1.62E-15
143,2.16E-15
142,3.98E-15
142,8.12E-15
142,1.68E-14
142,3.47E-14
142,7.08E-14
142,1.43E-13
141,2.87E-13
141,5.69E-13
141,1.12E-12
141,2.17E-12
141,4.18E-12
141,7.97E-12
141,1.50E-11
140,2.81E-11
140,5.19E-11
140,9.51E-11
140,1.72E-10
140,3.09E-10
140,5.49E-10
139,9.66E-10
139,1.68E-09
139,2.90E-09
139,4.95E-09
139,8.35E-09
139,1.40E-08
138,2.31E-08
138,3.79E-08
138,6.16E-08
138,9.89E-08
138,1.57E-07
138,2.48E-07
138,3.87E-07
137,5.97E-07
137,9.12E-07
137,1.38E-06
137,2.07E-06
137,3.07E-06
137,4.50E-06
137,6.54E-06
136,9.42E-06
136,1.34E-05
136,1.89E-05
136,2.64E-05
136,3.65E-05
136,5.00E-05
135,6.78E-05
135,9.09E-05
135,0.000120724
135,0.000158744
135,0.000206655
135,0.000266344
135,0.000339848
134,0.000429313
134,0.000536918
134,0.000664796
134,0.000814921
134,0.000988981
134,0.001188248
134,0.001413423
133,0.001664498
133,0.00194062
133,0.002239979
133,0.002559726
133,0.002895937
133,0.003243627
133,0.00359682
132,0.003948687
132,0.004291734
132,0.004618054
132,0.004919618
132,0.005188596
132,0.005417694
132,0.005600479
131,0.00573168
131,0.005807442
131,0.00582551
131,0.005785343
131,0.005688142
131,0.005536787
131,0.005335699
130,0.005090624
130,0.004808358
130,0.004496438
130,0.004162811
130,0.003815494
130,0.003462271
130,0.003110408
130,0.002766431
129,0.00243595
129,0.002123553
129,0.001832753
129,0.001565997
129,0.00132472
129,0.001109438
129,0.000919874
128,0.000755092
128,0.000613645
128,0.00049372
128,0.00039327
128,0.000310132
128,0.00024213
128,0.000187153
128,0.000143216
127,0.0001085
127,8.14E-05
127,6.04E-05
127,4.44E-05
127,3.23E-05
127,2.33E-05
127,1.66E-05
126,1.17E-05
126,8.21E-06
126,5.68E-06
126,3.89E-06
126,2.64E-06
126,1.77E-06
126,1.18E-06
126,7.77E-07
125,5.06E-07
125,3.27E-07
125,2.09E-07
125,1.32E-07
125,8.27E-08
125,5.13E-08
125,3.15E-08
125,1.91E-08
124,1.15E-08
124,6.85E-09
124,4.04E-09
124,2.36E-09
124,1.36E-09
124,7.80E-10
124,4.42E-10
124,2.48E-10
123,1.38E-10
123,7.56E-11
123,4.12E-11
123,2.22E-11
123,1.18E-11
123,6.25E-12
123,3.27E-12
123,1.69E-12
122,8.66E-13
122,4.39E-13
122,2.21E-13
122,1.10E-13
122,5.40E-14
122,2.63E-14
122,1.27E-14
122,6.07E-15
122,2.87E-15
121,1.34E-15
121,6.23E-16
121,2.86E-16
121,1.30E-16
121,5.84E-17
121,2.60E-17
121,1.15E-17
121,5.01E-18
120,2.16E-18
120,9.26E-19
120,3.92E-19
120,1.64E-19
120,6.83E-20
120,2.81E-20
120,1.14E-20
120,4.60E-21
120,1.83E-21
119,7.24E-22
119,2.83E-22
119,1.10E-22
119,4.20E-23
119,1.59E-23
119,5.98E-24
119,2.22E-24
119,8.19E-25
118,2.98E-25
118,1.08E-25
118,3.84E-26
